SpectraSuite Data File
++++++++++++++++++++++++++++++++++++
Date: Mon Apr 13 17:21:03 BST 2015
User: mpfc3
Dark Spectrum Present: Yes
Reference Spectrum Present: Yes
Number of Sampled Component Spectra: 1
Spectrometers: USB2E3636
Integration Time (usec): 30000 (USB2E3636)
Spectra Averaged: 100 (USB2E3636)
Boxcar Smoothing: 0 (USB2E3636)
Correct for Electrical Dark: No (USB2E3636)
Strobe/Lamp Enabled: No (USB2E3636)
Correct for Detector Non-linearity: No (USB2E3636)
Correct for Stray Light: No (USB2E3636)
Number of Pixels in Processed Spectrum: 2048
>>>>>Begin Processed Spectral Data<<<<<
180.28	0.000
180.65	88.333
181.02	157.778
181.39	93.103
181.77	151.351
182.14	160.377
182.51	173.043
182.88	920.000
183.25	145.833
183.63	28.049
184.00	84.685
184.37	212.500
184.74	271.053
185.11	-2400.000
185.49	-223.913
185.86	218.421
186.23	200.000
186.60	841.667
186.97	184.000
187.35	82.022
187.72	-350.000
188.09	211.538
188.46	91.489
188.83	141.880
189.20	29.675
189.58	13.708
189.95	14.251
190.32	13.520
190.69	15.575
191.06	11.272
191.43	14.361
191.81	16.093
192.18	14.216
192.55	12.586
192.92	17.206
193.29	17.953
193.66	15.715
194.03	12.907
194.41	14.839
194.78	15.045
195.15	15.117
195.52	16.271
195.89	16.282
196.26	16.086
196.63	13.276
197.01	18.314
197.38	12.537
197.75	16.062
198.12	14.570
198.49	13.805
198.86	16.306
199.23	17.910
199.60	15.942
199.98	16.735
200.35	14.443
200.72	16.091
201.09	11.037
201.46	14.184
201.83	14.822
202.20	15.687
202.57	16.599
202.94	15.974
203.31	11.747
203.69	17.531
204.06	13.856
204.43	16.324
204.80	15.314
205.17	13.219
205.54	15.986
205.91	11.772
206.28	15.432
206.65	17.564
207.02	19.610
207.39	16.438
207.76	13.139
208.14	14.066
208.51	18.754
208.88	16.178
209.25	16.034
209.62	15.056
209.99	12.781
210.36	14.715
210.73	17.674
211.10	18.164
211.47	16.804
211.84	15.938
212.21	15.681
212.58	13.414
212.95	14.702
213.32	14.267
213.69	13.659
214.06	15.886
214.43	16.656
214.80	14.139
215.17	20.313
215.55	15.673
215.92	17.298
216.29	18.290
216.66	19.710
217.03	10.422
217.40	15.817
217.77	17.575
218.14	17.425
218.51	21.291
218.88	16.335
219.25	12.744
219.62	17.330
219.99	18.213
220.36	17.736
220.73	14.362
221.10	14.649
221.47	16.090
221.84	15.663
222.21	13.895
222.58	17.034
222.95	16.478
223.32	16.550
223.69	16.745
224.06	18.176
224.43	21.670
224.80	17.336
225.17	15.284
225.54	15.216
225.91	15.412
226.27	17.063
226.64	16.287
227.01	14.831
227.38	19.013
227.75	19.766
228.12	13.696
228.49	15.725
228.86	19.118
229.23	16.228
229.60	16.463
229.97	15.880
230.34	20.726
230.71	15.413
231.08	17.116
231.45	17.578
231.82	15.789
232.19	20.717
232.56	17.098
232.93	14.691
233.30	17.190
233.66	20.288
234.03	19.673
234.40	19.986
234.77	18.847
235.14	18.631
235.51	15.847
235.88	17.638
236.25	16.600
236.62	17.272
236.99	15.975
237.36	16.343
237.73	15.144
238.09	17.160
238.46	16.241
238.83	15.741
239.20	17.077
239.57	18.925
239.94	18.984
240.31	14.992
240.68	14.027
241.05	18.643
241.41	17.247
241.78	18.124
242.15	18.497
242.52	16.576
242.89	18.592
243.26	21.093
243.63	18.663
244.00	17.848
244.36	20.015
244.73	19.397
245.10	17.069
245.47	12.490
245.84	18.719
246.21	20.180
246.58	15.514
246.94	17.657
247.31	15.922
247.68	22.036
248.05	19.092
248.42	24.370
248.79	20.466
249.15	19.886
249.52	20.249
249.89	25.138
250.26	16.833
250.63	20.954
251.00	20.482
251.36	20.398
251.73	22.365
252.10	22.558
252.47	23.001
252.84	14.875
253.20	23.345
253.57	20.985
253.94	24.138
254.31	19.064
254.68	20.813
255.05	16.334
255.41	19.079
255.78	18.264
256.15	12.829
256.52	21.593
256.88	24.877
257.25	20.560
257.62	18.791
257.99	20.903
258.36	20.432
258.72	19.339
259.09	16.612
259.46	24.213
259.83	21.797
260.19	17.557
260.56	20.617
260.93	13.931
261.30	18.437
261.67	14.249
262.03	21.575
262.40	22.864
262.77	20.749
263.14	18.150
263.50	19.352
263.87	18.463
264.24	21.175
264.61	17.045
264.97	15.065
265.34	20.847
265.71	16.739
266.07	17.283
266.44	19.679
266.81	18.400
267.18	23.675
267.54	20.385
267.91	21.713
268.28	19.074
268.64	20.442
269.01	17.277
269.38	18.914
269.75	18.619
270.11	22.533
270.48	16.401
270.85	16.461
271.21	21.563
271.58	18.271
271.95	15.651
272.32	23.424
272.68	19.474
273.05	17.914
273.42	27.753
273.78	16.138
274.15	22.222
274.52	22.339
274.88	23.465
275.25	17.772
275.62	16.652
275.98	18.850
276.35	20.261
276.72	24.245
277.08	20.623
277.45	21.488
277.82	20.758
278.18	17.108
278.55	21.951
278.92	23.306
279.28	17.069
279.65	21.677
280.01	21.961
280.38	19.170
280.75	18.117
281.11	21.080
281.48	21.797
281.85	20.501
282.21	20.165
282.58	21.713
282.95	20.901
283.31	17.740
283.68	21.899
284.04	14.636
284.41	24.914
284.78	17.568
285.14	13.442
285.51	22.645
285.87	23.469
286.24	21.385
286.61	20.780
286.97	22.901
287.34	17.271
287.70	13.321
288.07	25.575
288.44	25.129
288.80	14.649
289.17	15.946
289.53	22.604
289.90	22.850
290.26	22.616
290.63	19.273
291.00	14.465
291.36	19.680
291.73	20.330
292.09	15.742
292.46	19.366
292.82	22.922
293.19	18.576
293.56	17.399
293.92	25.956
294.29	19.177
294.65	19.085
295.02	20.036
295.38	18.238
295.75	21.017
296.11	16.307
296.48	18.499
296.84	19.709
297.21	25.939
297.57	19.482
297.94	24.392
298.30	19.161
298.67	19.211
299.04	17.247
299.40	23.625
299.77	18.300
300.13	20.293
300.50	22.860
300.86	21.222
301.23	21.746
301.59	21.606
301.96	15.990
302.32	22.394
302.69	24.959
303.05	20.476
303.42	18.661
303.78	18.981
304.14	21.793
304.51	19.055
304.87	21.145
305.24	22.752
305.60	19.885
305.97	19.671
306.33	19.949
306.70	17.332
307.06	20.205
307.43	18.806
307.79	26.065
308.16	24.000
308.52	15.017
308.88	18.175
309.25	23.682
309.61	21.429
309.98	26.391
310.34	17.982
310.71	20.048
311.07	21.921
311.44	23.657
311.80	21.749
312.16	19.741
312.53	22.391
312.89	21.814
313.26	18.621
313.62	19.274
313.98	23.183
314.35	19.882
314.71	18.544
315.08	19.040
315.44	19.590
315.80	22.548
316.17	15.634
316.53	22.648
316.90	19.413
317.26	15.176
317.62	21.932
317.99	18.297
318.35	20.580
318.72	18.681
319.08	14.830
319.44	16.234
319.81	17.810
320.17	21.891
320.53	12.581
320.90	20.659
321.26	14.830
321.62	12.716
321.99	14.857
322.35	13.870
322.72	20.904
323.08	19.408
323.44	15.947
323.81	17.549
324.17	18.616
324.53	13.772
324.90	14.603
325.26	13.875
325.62	16.934
325.99	13.985
326.35	14.345
326.71	12.500
327.08	16.816
327.44	16.612
327.80	10.726
328.16	13.212
328.53	14.938
328.89	17.376
329.25	16.639
329.62	11.585
329.98	12.289
330.34	15.192
330.71	14.827
331.07	15.084
331.43	11.632
331.79	12.921
332.16	15.751
332.52	14.000
332.88	12.661
333.24	13.168
333.61	14.209
333.97	14.279
334.33	13.229
334.70	12.298
335.06	11.805
335.42	13.548
335.78	12.026
336.15	7.673
336.51	12.040
336.87	9.007
337.23	10.821
337.60	8.985
337.96	14.040
338.32	9.959
338.68	11.727
339.04	11.053
339.41	12.555
339.77	11.274
340.13	10.353
340.49	10.448
340.86	10.615
341.22	8.404
341.58	6.468
341.94	11.423
342.30	10.877
342.67	9.276
343.03	8.595
343.39	10.076
343.75	9.642
344.11	9.586
344.48	9.267
344.84	9.047
345.20	9.846
345.56	10.068
345.92	7.985
346.28	7.671
346.65	6.832
347.01	7.858
347.37	10.067
347.73	9.588
348.09	8.535
348.45	6.910
348.82	7.878
349.18	7.219
349.54	9.445
349.90	7.415
350.26	7.036
350.62	7.522
350.98	6.279
351.35	7.724
351.71	8.430
352.07	5.610
352.43	7.477
352.79	6.256
353.15	7.833
353.51	6.950
353.87	7.460
354.24	5.706
354.60	8.351
354.96	6.654
355.32	6.448
355.68	5.550
356.04	6.822
356.40	5.469
356.76	6.682
357.12	7.280
357.48	6.241
357.85	4.694
358.21	6.802
358.57	6.004
358.93	6.203
359.29	6.292
359.65	5.795
360.01	5.822
360.37	5.395
360.73	5.202
361.09	5.101
361.45	4.479
361.81	5.572
362.17	6.732
362.53	6.273
362.89	5.159
363.25	5.185
363.62	6.468
363.98	4.862
364.34	5.982
364.70	3.985
365.06	5.882
365.42	4.726
365.78	4.560
366.14	5.463
366.50	5.667
366.86	5.084
367.22	4.875
367.58	4.736
367.94	4.641
368.30	4.390
368.66	4.820
369.02	4.893
369.38	4.034
369.74	5.151
370.10	5.175
370.46	4.648
370.82	5.164
371.18	5.315
371.54	4.987
371.90	4.679
372.26	4.387
372.62	4.500
372.98	4.670
373.33	4.272
373.69	3.705
374.05	4.455
374.41	4.756
374.77	4.261
375.13	4.770
375.49	5.339
375.85	4.373
376.21	4.388
376.57	4.484
376.93	4.745
377.29	4.222
377.65	4.587
378.01	4.481
378.37	4.317
378.73	4.126
379.08	4.759
379.44	4.345
379.80	4.347
380.16	4.651
380.52	4.215
380.88	4.749
381.24	4.637
381.60	4.684
381.96	4.941
382.32	4.822
382.67	4.379
383.03	4.761
383.39	4.996
383.75	5.302
384.11	5.499
384.47	5.188
384.83	5.476
385.19	5.427
385.54	5.452
385.90	5.131
386.26	5.134
386.62	5.887
386.98	5.683
387.34	5.500
387.70	5.574
388.05	5.861
388.41	6.077
388.77	5.687
389.13	5.899
389.49	5.903
389.85	5.612
390.20	6.261
390.56	6.155
390.92	6.295
391.28	6.534
391.64	6.737
391.99	6.701
392.35	6.642
392.71	6.786
393.07	7.057
393.43	6.847
393.78	7.215
394.14	6.985
394.50	7.205
394.86	7.181
395.22	7.152
395.57	7.335
395.93	7.528
396.29	7.759
396.65	7.622
397.00	7.785
397.36	8.251
397.72	7.818
398.08	7.873
398.43	8.056
398.79	8.389
399.15	8.382
399.51	8.683
399.86	8.790
400.22	8.558
400.58	8.620
400.94	9.037
401.29	8.983
401.65	9.122
402.01	8.917
402.37	9.347
402.72	9.118
403.08	9.573
403.44	9.560
403.79	9.165
404.15	10.059
404.51	9.866
404.86	10.086
405.22	9.849
405.58	10.028
405.94	10.004
406.29	9.961
406.65	10.645
407.01	10.668
407.36	10.329
407.72	10.832
408.08	10.743
408.43	11.049
408.79	11.030
409.15	11.420
409.50	11.318
409.86	11.527
410.22	11.621
410.57	12.063
410.93	11.846
411.29	11.848
411.64	12.029
412.00	12.137
412.35	12.355
412.71	12.290
413.07	12.370
413.42	12.417
413.78	12.386
414.14	12.629
414.49	12.749
414.85	12.915
415.20	12.942
415.56	13.141
415.92	13.161
416.27	13.481
416.63	13.487
416.98	13.555
417.34	13.629
417.70	13.611
418.05	13.768
418.41	13.854
418.76	14.111
419.12	14.143
419.47	14.276
419.83	14.200
420.19	14.575
420.54	14.367
420.90	14.555
421.25	14.772
421.61	14.943
421.96	15.163
422.32	15.025
422.67	15.122
423.03	15.183
423.39	15.449
423.74	15.382
424.10	15.480
424.45	15.652
424.81	15.721
425.16	15.851
425.52	15.822
425.87	15.944
426.23	16.102
426.58	16.408
426.94	16.466
427.29	16.216
427.65	16.455
428.00	16.668
428.36	16.757
428.71	16.728
429.07	16.866
429.42	16.740
429.78	17.064
430.13	17.142
430.49	17.234
430.84	17.260
431.19	17.626
431.55	17.626
431.90	17.755
432.26	17.707
432.61	17.920
432.97	17.889
433.32	18.061
433.68	18.103
434.03	18.379
434.39	18.296
434.74	18.397
435.09	18.445
435.45	18.697
435.80	18.726
436.16	18.787
436.51	18.750
436.86	18.849
437.22	18.996
437.57	19.087
437.93	19.064
438.28	19.307
438.63	19.229
438.99	19.441
439.34	19.627
439.70	19.518
440.05	19.467
440.40	19.701
440.76	19.799
441.11	19.978
441.47	19.932
441.82	19.954
442.17	20.169
442.53	20.176
442.88	20.332
443.23	20.346
443.59	20.474
443.94	20.445
444.29	20.492
444.65	20.495
445.00	20.631
445.35	20.797
445.71	20.865
446.06	20.945
446.41	21.064
446.77	21.049
447.12	21.262
447.47	21.292
447.83	21.372
448.18	21.447
448.53	21.605
448.89	21.552
449.24	21.607
449.59	21.648
449.94	21.764
450.30	21.960
450.65	21.969
451.00	21.995
451.36	22.232
451.71	22.130
452.06	22.330
452.41	22.388
452.77	22.578
453.12	22.703
453.47	22.589
453.82	22.704
454.18	22.984
454.53	22.928
454.88	23.053
455.23	23.068
455.59	23.278
455.94	23.209
456.29	23.191
456.64	23.420
457.00	23.537
457.35	23.603
457.70	23.743
458.05	23.775
458.40	23.894
458.76	23.942
459.11	23.871
459.46	24.141
459.81	24.162
460.16	24.253
460.52	24.225
460.87	24.382
461.22	24.468
461.57	24.765
461.92	24.754
462.28	24.650
462.63	24.697
462.98	24.879
463.33	24.902
463.68	25.060
464.03	25.050
464.38	25.243
464.74	25.309
465.09	25.397
465.44	25.357
465.79	25.300
466.14	25.515
466.49	25.452
466.84	25.652
467.20	25.770
467.55	25.733
467.90	25.809
468.25	25.576
468.60	25.817
468.95	25.864
469.30	25.948
469.65	26.094
470.00	26.087
470.36	26.092
470.71	26.178
471.06	26.147
471.41	26.271
471.76	26.275
472.11	26.254
472.46	26.205
472.81	26.374
473.16	26.473
473.51	26.457
473.86	26.365
474.21	26.505
474.56	26.505
474.91	26.493
475.26	26.514
475.62	26.489
475.97	26.487
476.32	26.566
476.67	26.446
477.02	26.573
477.37	26.470
477.72	26.520
478.07	26.524
478.42	26.543
478.77	26.484
479.12	26.519
479.47	26.557
479.82	26.499
480.17	26.512
480.52	26.487
480.87	26.537
481.22	26.484
481.57	26.484
481.92	26.529
482.27	26.464
482.62	26.446
482.97	26.425
483.32	26.518
483.67	26.436
484.02	26.483
484.36	26.481
484.71	26.484
485.06	26.420
485.41	26.431
485.76	26.461
486.11	26.533
486.46	26.441
486.81	26.490
487.16	26.574
487.51	26.600
487.86	26.747
488.21	26.753
488.56	26.808
488.91	26.787
489.25	26.847
489.60	26.948
489.95	26.972
490.30	27.094
490.65	27.149
491.00	27.189
491.35	27.323
491.70	27.325
492.05	27.343
492.39	27.380
492.74	27.445
493.09	27.546
493.44	27.641
493.79	27.666
494.14	27.751
494.49	27.851
494.83	27.890
495.18	27.998
495.53	28.051
495.88	28.107
496.23	28.234
496.58	28.300
496.92	28.420
497.27	28.456
497.62	28.535
497.97	28.601
498.32	28.728
498.67	28.788
499.01	28.834
499.36	28.899
499.71	29.005
500.06	29.043
500.41	29.120
500.75	29.258
501.10	29.258
501.45	29.372
501.80	29.434
502.14	29.482
502.49	29.531
502.84	29.465
503.19	29.567
503.53	29.656
503.88	29.730
504.23	29.771
504.58	29.790
504.92	29.862
505.27	29.852
505.62	29.926
505.97	29.905
506.31	30.024
506.66	30.030
507.01	30.068
507.36	30.009
507.70	30.079
508.05	30.063
508.40	30.048
508.74	30.087
509.09	30.128
509.44	30.090
509.79	29.991
510.13	29.993
510.48	29.937
510.83	29.973
511.17	29.984
511.52	29.930
511.87	29.951
512.21	29.928
512.56	29.883
512.91	29.907
513.25	30.049
513.60	29.971
513.95	30.055
514.29	30.143
514.64	30.152
514.98	30.182
515.33	30.246
515.68	30.254
516.02	30.293
516.37	30.344
516.72	30.370
517.06	30.426
517.41	30.464
517.75	30.504
518.10	30.528
518.45	30.544
518.79	30.608
519.14	30.616
519.48	30.667
519.83	30.662
520.18	30.760
520.52	30.728
520.87	30.727
521.21	30.755
521.56	30.845
521.90	30.808
522.25	30.844
522.60	30.833
522.94	30.830
523.29	30.889
523.63	30.853
523.98	30.840
524.32	30.790
524.67	30.782
525.01	30.821
525.36	30.824
525.70	30.762
526.05	30.767
526.39	30.684
526.74	30.615
527.08	30.626
527.43	30.543
527.77	30.548
528.12	30.407
528.46	30.413
528.81	30.350
529.15	30.290
529.50	30.184
529.84	30.096
530.19	29.993
530.53	29.884
530.88	29.766
531.22	29.700
531.57	29.630
531.91	29.452
532.26	29.343
532.60	29.185
532.94	29.011
533.29	28.941
533.63	28.744
533.98	28.526
534.32	28.398
534.67	28.201
535.01	27.991
535.35	27.824
535.70	27.682
536.04	27.441
536.39	27.266
536.73	27.023
537.07	26.878
537.42	26.574
537.76	26.406
538.11	26.179
538.45	25.898
538.79	25.712
539.14	25.520
539.48	25.377
539.82	25.235
540.17	24.944
540.51	24.792
540.85	24.614
541.20	24.449
541.54	24.289
541.89	24.178
542.23	24.034
542.57	23.905
542.92	23.821
543.26	23.716
543.60	23.550
543.94	23.599
544.29	23.448
544.63	23.403
544.97	23.369
545.32	23.353
545.66	23.369
546.00	23.332
546.35	23.293
546.69	23.268
547.03	23.337
547.37	23.355
547.72	23.366
548.06	23.409
548.40	23.498
548.75	23.503
549.09	23.577
549.43	23.641
549.77	23.711
550.12	23.803
550.46	23.892
550.80	24.025
551.14	24.119
551.49	24.201
551.83	24.372
552.17	24.454
552.51	24.594
552.85	24.862
553.20	24.966
553.54	25.124
553.88	25.325
554.22	25.472
554.56	25.646
554.91	25.992
555.25	26.165
555.59	26.355
555.93	26.649
556.27	26.842
556.62	27.095
556.96	27.373
557.30	27.570
557.64	27.848
557.98	28.141
558.32	28.348
558.67	28.577
559.01	28.888
559.35	29.096
559.69	29.380
560.03	29.598
560.37	29.888
560.71	30.149
561.05	30.348
561.40	30.499
561.74	30.820
562.08	30.981
562.42	31.256
562.76	31.471
563.10	31.681
563.44	31.899
563.78	31.996
564.12	32.201
564.46	32.365
564.81	32.531
565.15	32.688
565.49	32.805
565.83	32.899
566.17	33.020
566.51	33.095
566.85	33.219
567.19	33.373
567.53	33.386
567.87	33.566
568.21	33.531
568.55	33.543
568.89	33.635
569.23	33.683
569.57	33.652
569.91	33.631
570.25	33.690
570.59	33.638
570.93	33.583
571.27	33.533
571.61	33.595
571.95	33.495
572.29	33.494
572.63	33.284
572.97	33.391
573.31	33.274
573.65	33.140
573.99	33.069
574.33	33.026
574.67	32.861
575.01	32.771
575.35	32.659
575.69	32.515
576.03	32.444
576.37	32.317
576.71	32.150
577.05	32.047
577.39	31.867
577.73	31.759
578.06	31.545
578.40	31.489
578.74	31.287
579.08	31.099
579.42	30.962
579.76	30.714
580.10	30.510
580.44	30.369
580.78	30.108
581.12	29.933
581.45	29.719
581.79	29.511
582.13	29.358
582.47	29.230
582.81	28.999
583.15	28.870
583.49	28.640
583.83	28.499
584.16	28.262
584.50	28.102
584.84	28.027
585.18	27.723
585.52	27.613
585.86	27.489
586.19	27.253
586.53	27.248
586.87	27.068
587.21	26.824
587.55	26.633
587.88	26.547
588.22	26.380
588.56	26.194
588.90	26.027
589.24	25.811
589.57	25.705
589.91	25.431
590.25	25.183
590.59	25.005
590.92	24.805
591.26	24.522
591.60	24.265
591.94	24.145
592.27	23.843
592.61	23.534
592.95	23.306
593.29	23.048
593.62	22.798
593.96	22.436
594.30	22.149
594.64	21.793
594.97	21.471
595.31	21.103
595.65	20.746
595.98	20.385
596.32	19.958
596.66	19.551
597.00	19.081
597.33	18.652
597.67	18.189
598.01	17.738
598.34	17.287
598.68	16.875
599.02	16.389
599.35	15.925
599.69	15.573
600.03	15.156
600.36	14.720
600.70	14.436
601.03	14.087
601.37	13.775
601.71	13.467
602.04	13.184
602.38	12.873
602.72	12.669
603.05	12.324
603.39	12.081
603.72	11.811
604.06	11.557
604.40	11.265
604.73	11.010
605.07	10.725
605.40	10.433
605.74	10.181
606.08	9.846
606.41	9.566
606.75	9.317
607.08	9.002
607.42	8.728
607.75	8.444
608.09	8.177
608.42	7.900
608.76	7.644
609.10	7.349
609.43	7.076
609.77	6.819
610.10	6.534
610.44	6.262
610.77	6.043
611.11	5.807
611.44	5.543
611.78	5.325
612.11	5.078
612.45	4.861
612.78	4.621
613.12	4.408
613.45	4.214
613.79	4.035
614.12	3.824
614.46	3.663
614.79	3.497
615.13	3.345
615.46	3.181
615.79	3.025
616.13	2.916
616.46	2.757
616.80	2.662
617.13	2.566
617.47	2.469
617.80	2.395
618.13	2.305
618.47	2.202
618.80	2.119
619.14	2.084
619.47	2.001
619.81	1.948
620.14	1.879
620.47	1.819
620.81	1.767
621.14	1.710
621.47	1.665
621.81	1.641
622.14	1.575
622.48	1.545
622.81	1.498
623.14	1.463
623.48	1.436
623.81	1.405
624.14	1.393
624.48	1.362
624.81	1.376
625.14	1.311
625.48	1.340
625.81	1.286
626.14	1.313
626.48	1.279
626.81	1.308
627.14	1.289
627.48	1.279
627.81	1.295
628.14	1.305
628.47	1.364
628.81	1.344
629.14	1.390
629.47	1.405
629.81	1.451
630.14	1.487
630.47	1.527
630.80	1.557
631.14	1.649
631.47	1.718
631.80	1.791
632.13	1.856
632.47	1.934
632.80	2.023
633.13	2.119
633.46	2.228
633.79	2.350
634.13	2.480
634.46	2.603
634.79	2.774
635.12	2.914
635.45	3.035
635.79	3.232
636.12	3.407
636.45	3.573
636.78	3.792
637.11	3.987
637.45	4.196
637.78	4.413
638.11	4.660
638.44	4.866
638.77	5.131
639.10	5.384
639.44	5.577
639.77	5.872
640.10	6.141
640.43	6.431
640.76	6.626
641.09	6.902
641.42	7.180
641.75	7.445
642.08	7.720
642.42	7.958
642.75	8.254
643.08	8.525
643.41	8.760
643.74	9.048
644.07	9.293
644.40	9.549
644.73	9.788
645.06	10.080
645.39	10.282
645.72	10.492
646.05	10.746
646.38	11.016
646.72	11.177
647.05	11.385
647.38	11.642
647.71	11.782
648.04	12.006
648.37	12.088
648.70	12.247
649.03	12.371
649.36	12.520
649.69	12.610
650.02	12.670
650.35	12.758
650.68	12.803
651.01	12.819
651.34	12.785
651.67	12.837
652.00	12.802
652.33	12.738
652.66	12.688
652.99	12.594
653.31	12.465
653.64	12.332
653.97	12.109
654.30	11.922
654.63	11.731
654.96	11.480
655.29	11.248
655.62	11.006
655.95	10.750
656.28	10.444
656.61	10.205
656.94	9.873
657.27	9.587
657.60	9.359
657.92	9.028
658.25	8.825
658.58	8.501
658.91	8.294
659.24	8.072
659.57	7.875
659.90	7.632
660.23	7.450
660.55	7.250
660.88	6.990
661.21	6.855
661.54	6.654
661.87	6.470
662.20	6.302
662.52	6.106
662.85	5.954
663.18	5.800
663.51	5.615
663.84	5.482
664.16	5.301
664.49	5.174
664.82	5.077
665.15	4.935
665.48	4.756
665.80	4.656
666.13	4.535
666.46	4.404
666.79	4.316
667.12	4.228
667.44	4.092
667.77	4.012
668.10	3.947
668.43	3.863
668.75	3.759
669.08	3.686
669.41	3.589
669.73	3.557
670.06	3.473
670.39	3.447
670.72	3.387
671.04	3.323
671.37	3.246
671.70	3.221
672.02	3.172
672.35	3.122
672.68	3.111
673.00	3.060
673.33	2.999
673.66	3.000
673.98	2.958
674.31	2.947
674.64	2.919
674.96	2.874
675.29	2.866
675.62	2.849
675.94	2.818
676.27	2.816
676.60	2.789
676.92	2.823
677.25	2.784
677.58	2.757
677.90	2.771
678.23	2.737
678.55	2.727
678.88	2.718
679.21	2.724
679.53	2.684
679.86	2.690
680.18	2.694
680.51	2.630
680.83	2.595
681.16	2.646
681.49	2.587
681.81	2.565
682.14	2.573
682.46	2.545
682.79	2.519
683.11	2.497
683.44	2.488
683.76	2.472
684.09	2.487
684.41	2.474
684.74	2.419
685.06	2.403
685.39	2.389
685.71	2.374
686.04	2.369
686.36	2.356
686.69	2.314
687.01	2.344
687.34	2.298
687.66	2.317
687.99	2.282
688.31	2.238
688.64	2.244
688.96	2.243
689.29	2.183
689.61	2.166
689.93	2.162
690.26	2.102
690.58	2.078
690.91	2.069
691.23	2.018
691.56	1.993
691.88	1.945
692.20	1.899
692.53	1.903
692.85	1.834
693.18	1.794
693.50	1.704
693.82	1.670
694.15	1.640
694.47	1.542
694.79	1.525
695.12	1.498
695.44	1.404
695.76	1.347
696.09	1.295
696.41	1.247
696.73	1.188
697.06	1.097
697.38	1.047
697.70	1.040
698.03	0.949
698.35	0.900
698.67	0.842
699.00	0.818
699.32	0.775
699.64	0.718
699.97	0.649
700.29	0.644
700.61	0.603
700.93	0.560
701.26	0.532
701.58	0.482
701.90	0.488
702.22	0.437
702.55	0.440
702.87	0.412
703.19	0.372
703.51	0.365
703.84	0.321
704.16	0.305
704.48	0.313
704.80	0.265
705.13	0.280
705.45	0.281
705.77	0.294
706.09	0.266
706.41	0.232
706.74	0.250
707.06	0.216
707.38	0.208
707.70	0.196
708.02	0.213
708.34	0.179
708.67	0.212
708.99	0.213
709.31	0.220
709.63	0.213
709.95	0.196
710.27	0.208
710.59	0.176
710.92	0.245
711.24	0.191
711.56	0.172
711.88	0.180
712.20	0.191
712.52	0.226
712.84	0.177
713.16	0.177
713.48	0.147
713.80	0.126
714.12	0.195
714.45	0.187
714.77	0.170
715.09	0.200
715.41	0.156
715.73	0.244
716.05	0.201
716.37	0.198
716.69	0.199
717.01	0.188
717.33	0.231
717.65	0.210
717.97	0.179
718.29	0.164
718.61	0.197
718.93	0.188
719.25	0.210
719.57	0.202
719.89	0.189
720.21	0.227
720.53	0.189
720.85	0.225
721.17	0.191
721.49	0.216
721.81	0.237
722.13	0.231
722.45	0.268
722.77	0.229
723.09	0.264
723.41	0.247
723.72	0.208
724.04	0.219
724.36	0.284
724.68	0.265
725.00	0.229
725.32	0.298
725.64	0.248
725.96	0.247
726.28	0.306
726.60	0.194
726.91	0.304
727.23	0.242
727.55	0.333
727.87	0.255
728.19	0.362
728.51	0.245
728.83	0.352
729.14	0.353
729.46	0.319
729.78	0.345
730.10	0.341
730.42	0.342
730.74	0.324
731.05	0.341
731.37	0.323
731.69	0.303
732.01	0.332
732.33	0.345
732.64	0.342
732.96	0.330
733.28	0.334
733.60	0.318
733.92	0.369
734.23	0.285
734.55	0.305
734.87	0.303
735.19	0.350
735.50	0.245
735.82	0.330
736.14	0.337
736.45	0.319
736.77	0.365
737.09	0.351
737.41	0.247
737.72	0.292
738.04	0.292
738.36	0.276
738.67	0.266
738.99	0.338
739.31	0.309
739.63	0.274
739.94	0.226
740.26	0.287
740.58	0.220
740.89	0.282
741.21	0.318
741.52	0.298
741.84	0.281
742.16	0.242
742.47	0.289
742.79	0.339
743.11	0.285
743.42	0.226
743.74	0.229
744.05	0.230
744.37	0.229
744.69	0.270
745.00	0.230
745.32	0.270
745.63	0.260
745.95	0.281
746.27	0.205
746.58	0.224
746.90	0.242
747.21	0.270
747.53	0.208
747.84	0.200
748.16	0.232
748.47	0.274
748.79	0.257
749.10	0.252
749.42	0.299
749.74	0.247
750.05	0.282
750.37	0.240
750.68	0.218
751.00	0.218
751.31	0.201
751.62	0.231
751.94	0.191
752.25	0.179
752.57	0.173
752.88	0.187
753.20	0.180
753.51	0.175
753.83	0.151
754.14	0.241
754.46	0.194
754.77	0.205
755.08	0.272
755.40	0.219
755.71	0.199
756.03	0.216
756.34	0.209
756.66	0.188
756.97	0.220
757.28	0.126
757.60	0.152
757.91	0.209
758.22	0.181
758.54	0.170
758.85	0.197
759.17	0.190
759.48	0.183
759.79	0.197
760.11	0.213
760.42	0.191
760.73	0.139
761.05	0.228
761.36	0.221
761.67	0.174
761.99	0.153
762.30	0.165
762.61	0.189
762.92	0.180
763.24	0.160
763.55	0.192
763.86	0.184
764.18	0.116
764.49	0.213
764.80	0.184
765.11	0.144
765.43	0.214
765.74	0.199
766.05	0.166
766.36	0.158
766.68	0.210
766.99	0.170
767.30	0.152
767.61	0.149
767.93	0.165
768.24	0.162
768.55	0.147
768.86	0.208
769.17	0.171
769.49	0.168
769.80	0.138
770.11	0.176
770.42	0.166
770.73	0.172
771.04	0.143
771.36	0.147
771.67	0.173
771.98	0.190
772.29	0.151
772.60	0.166
772.91	0.160
773.22	0.177
773.54	0.209
773.85	0.149
774.16	0.151
774.47	0.175
774.78	0.161
775.09	0.157
775.40	0.201
775.71	0.171
776.02	0.196
776.33	0.217
776.64	0.187
776.96	0.201
777.27	0.161
777.58	0.154
777.89	0.206
778.20	0.194
778.51	0.107
778.82	0.230
779.13	0.221
779.44	0.227
779.75	0.213
780.06	0.140
780.37	0.188
780.68	0.107
780.99	0.110
781.30	0.169
781.61	0.124
781.92	0.190
782.23	0.182
782.54	0.175
782.85	0.102
783.16	0.238
783.47	0.129
783.78	0.167
784.08	0.193
784.39	0.069
784.70	0.222
785.01	0.192
785.32	0.113
785.63	0.218
785.94	0.189
786.25	0.224
786.56	0.137
786.87	0.163
787.18	0.269
787.48	0.242
787.79	0.228
788.10	0.118
788.41	0.172
788.72	0.208
789.03	0.181
789.34	0.217
789.64	0.146
789.95	0.276
790.26	0.206
790.57	0.206
790.88	0.266
791.19	0.262
791.49	0.247
791.80	0.195
792.11	0.178
792.42	0.292
792.73	0.237
793.03	0.224
793.34	0.209
793.65	0.102
793.96	0.262
794.27	0.207
794.57	0.261
794.88	0.113
795.19	0.227
795.50	0.305
795.80	0.248
796.11	0.210
796.42	0.221
796.72	0.285
797.03	0.212
797.34	0.244
797.65	0.279
797.95	0.306
798.26	0.225
798.57	0.303
798.87	0.267
799.18	0.324
799.49	0.326
799.79	0.348
800.10	0.265
800.41	0.349
800.71	0.270
801.02	0.335
801.33	0.294
801.63	0.379
801.94	0.284
802.24	0.203
802.55	0.319
802.86	0.277
803.16	0.356
803.47	0.364
803.77	0.266
804.08	0.383
804.39	0.188
804.69	0.317
805.00	0.276
805.30	0.298
805.61	0.416
805.91	0.286
806.22	0.145
806.53	0.262
806.83	0.358
807.14	0.443
807.44	0.353
807.75	0.328
808.05	0.484
808.36	0.515
808.66	0.436
808.97	0.377
809.27	0.294
809.58	0.596
809.88	0.385
810.19	0.362
810.49	0.364
810.80	0.365
811.10	0.443
811.41	0.495
811.71	0.529
812.01	0.593
812.32	0.464
812.62	0.484
812.93	0.264
813.23	0.159
813.54	0.628
813.84	0.570
814.14	0.390
814.45	0.600
814.75	0.423
815.06	0.698
815.36	0.484
815.66	0.332
815.97	0.459
816.27	0.557
816.58	0.412
816.88	0.455
817.18	0.784
817.49	0.625
817.79	0.783
818.09	0.565
818.40	0.204
818.70	0.542
819.00	0.358
819.31	0.466
819.61	0.424
819.91	0.411
820.21	0.543
820.52	0.730
820.82	0.342
821.12	0.655
821.43	0.391
821.73	0.783
822.03	0.477
822.33	0.769
822.64	0.612
822.94	0.573
823.24	0.991
823.54	0.634
823.85	0.880
824.15	0.900
824.45	0.715
824.75	0.612
825.05	0.568
825.36	0.789
825.66	0.839
825.96	0.561
826.26	0.639
826.56	0.518
826.87	1.282
827.17	0.771
827.47	0.645
827.77	1.045
828.07	0.618
828.37	0.782
828.67	1.099
828.98	1.006
829.28	0.746
829.58	1.057
829.88	0.906
830.18	0.592
830.48	0.847
830.78	0.974
831.08	1.052
831.38	0.847
831.69	0.565
831.99	0.653
832.29	1.055
832.59	1.528
832.89	1.253
833.19	1.235
833.49	1.224
833.79	1.609
834.09	1.480
834.39	0.951
834.69	1.218
834.99	0.703
835.29	1.294
835.59	0.964
835.89	1.458
836.19	1.439
836.49	0.800
836.79	1.106
837.09	1.379
837.39	1.331
837.69	1.258
837.99	2.258
838.29	1.568
838.59	1.941
838.89	1.872
839.19	2.024
839.49	1.979
839.79	1.452
840.09	0.971
840.39	1.968
840.68	1.782
840.98	3.047
841.28	2.439
841.58	2.731
841.88	2.617
842.18	1.773
842.48	1.301
842.78	1.828
843.08	2.383
843.37	3.088
843.67	2.213
843.97	2.190
844.27	1.819
844.57	2.723
844.87	2.777
845.16	2.978
845.46	2.783
845.76	2.228
846.06	2.379
846.36	2.738
846.66	3.053
846.95	3.204
847.25	2.321
847.55	2.693
847.85	3.000
848.14	2.606
848.44	2.862
848.74	2.352
849.04	2.323
849.33	4.327
849.63	4.437
849.93	3.277
850.23	3.432
850.52	2.566
850.82	3.797
851.12	4.218
851.42	3.000
851.71	3.619
852.01	3.770
852.31	5.297
852.60	3.974
852.90	3.627
853.20	4.486
853.49	5.822
853.79	4.957
854.09	6.142
854.38	5.819
854.68	5.392
854.98	4.080
855.27	4.794
855.57	4.738
855.86	5.774
856.16	5.109
856.46	3.884
856.75	5.522
857.05	5.096
857.34	2.887
857.64	7.116
857.94	5.417
858.23	4.478
858.53	7.709
858.82	4.254
859.12	6.841
859.41	4.609
859.71	3.492
860.01	3.812
860.30	4.437
860.60	5.004
860.89	5.975
861.19	3.959
861.48	3.922
861.78	3.965
862.07	5.207
862.37	5.412
862.66	4.023
862.96	6.758
863.25	5.442
863.55	6.568
863.84	4.907
864.13	4.248
864.43	6.504
864.72	6.311
865.02	5.333
865.31	6.608
865.61	6.955
865.90	4.750
866.19	5.903
866.49	6.252
866.78	5.101
867.08	5.237
867.37	4.734
867.66	3.966
867.96	3.677
868.25	4.701
868.55	5.457
868.84	4.783
869.13	5.054
869.43	5.717
869.72	4.544
870.01	4.082
870.31	4.372
870.60	6.874
870.89	6.190
871.19	4.621
871.48	4.311
871.77	6.468
872.07	4.797
872.36	6.087
872.65	6.352
872.94	7.086
873.24	3.453
873.53	8.939
873.82	5.342
874.11	6.072
874.41	3.645
874.70	5.230
>>>>>End Processed Spectral Data<<<<<
