SpectraSuite Data File
++++++++++++++++++++++++++++++++++++
Date: Mon Apr 13 17:28:13 BST 2015
User: mpfc3
Dark Spectrum Present: Yes
Reference Spectrum Present: Yes
Number of Sampled Component Spectra: 1
Spectrometers: USB2E3636
Integration Time (usec): 30000 (USB2E3636)
Spectra Averaged: 100 (USB2E3636)
Boxcar Smoothing: 0 (USB2E3636)
Correct for Electrical Dark: No (USB2E3636)
Strobe/Lamp Enabled: No (USB2E3636)
Correct for Detector Non-linearity: No (USB2E3636)
Correct for Stray Light: No (USB2E3636)
Number of Pixels in Processed Spectrum: 2048
>>>>>Begin Processed Spectral Data<<<<<
180.28	0.000
180.65	160.000
181.02	220.000
181.39	-60.345
181.77	186.486
182.14	196.226
182.51	129.565
182.88	2160.000
183.25	175.000
183.63	85.366
184.00	99.099
184.37	-100.000
184.74	100.000
185.11	100.000
185.49	-126.087
185.86	215.789
186.23	363.636
186.60	550.000
186.97	236.000
187.35	113.483
187.72	-416.667
188.09	326.923
188.46	112.766
188.83	88.889
189.20	34.350
189.58	13.240
189.95	13.882
190.32	15.210
190.69	18.820
191.06	12.343
191.43	15.539
191.81	15.977
192.18	19.380
192.55	10.592
192.92	14.550
193.29	18.713
193.66	13.714
194.03	13.596
194.41	12.786
194.78	12.000
195.15	14.337
195.52	12.565
195.89	17.032
196.26	16.086
196.63	13.908
197.01	18.035
197.38	14.337
197.75	19.453
198.12	14.088
198.49	17.345
198.86	17.650
199.23	17.968
199.60	18.087
199.98	14.328
200.35	11.506
200.72	14.242
201.09	12.726
201.46	17.580
201.83	14.459
202.20	14.395
202.57	16.832
202.94	15.974
203.31	14.908
203.69	14.609
204.06	14.623
204.43	15.961
204.80	16.290
205.17	13.035
205.54	15.753
205.91	13.734
206.28	17.269
206.65	18.482
207.02	19.079
207.39	15.816
207.76	15.663
208.14	17.258
208.51	19.347
208.88	17.705
209.25	20.991
209.62	16.657
209.99	14.963
210.36	12.284
210.73	16.452
211.10	16.536
211.47	17.372
211.84	14.400
212.21	12.339
212.58	10.262
212.95	14.512
213.32	13.743
213.69	17.231
214.06	12.595
214.43	18.060
214.80	17.224
215.17	19.289
215.55	13.452
215.92	16.225
216.29	17.285
216.66	16.058
217.03	15.435
217.40	20.788
217.77	18.353
218.14	18.898
218.51	12.294
218.88	13.178
219.25	15.105
219.62	18.274
219.99	13.989
220.36	20.092
220.73	13.697
221.10	17.538
221.47	16.022
221.84	9.839
222.21	18.456
222.58	18.971
222.95	12.801
223.32	17.742
223.69	18.830
224.06	19.651
224.43	17.598
224.80	15.222
225.17	16.528
225.54	16.518
225.91	17.382
226.27	16.508
226.64	15.789
227.01	17.867
227.38	16.212
227.75	15.978
228.12	9.928
228.49	15.580
228.86	16.457
229.23	14.547
229.60	18.332
229.97	18.169
230.34	19.679
230.71	17.604
231.08	18.864
231.45	16.100
231.82	17.346
232.19	20.571
232.56	14.871
232.93	16.107
233.30	19.507
233.66	17.266
234.03	20.861
234.40	17.773
234.77	16.778
235.14	19.831
235.51	16.628
235.88	14.873
236.25	15.642
236.62	16.457
236.99	17.463
237.36	16.418
237.73	14.984
238.09	19.453
238.46	20.226
238.83	17.747
239.20	17.385
239.57	19.379
239.94	16.966
240.31	17.465
240.68	15.524
241.05	15.601
241.41	12.687
241.78	15.819
242.15	17.589
242.52	15.097
242.89	16.220
243.26	16.705
243.63	16.381
244.00	12.877
244.36	17.316
244.73	17.156
245.10	21.578
245.47	22.531
245.84	14.696
246.21	16.095
246.58	16.077
246.94	20.504
247.31	16.491
247.68	21.581
248.05	17.746
248.42	25.345
248.79	19.384
249.15	22.890
249.52	22.508
249.89	18.656
250.26	17.000
250.63	19.312
251.00	21.044
251.36	19.442
251.73	22.285
252.10	18.904
252.47	19.703
252.84	14.273
253.20	16.299
253.57	21.469
253.94	24.054
254.31	15.338
254.68	21.292
255.05	17.811
255.41	18.075
255.78	18.099
256.15	14.274
256.52	23.153
256.88	23.077
257.25	19.520
257.62	17.484
257.99	19.649
258.36	21.595
258.72	16.033
259.09	20.213
259.46	18.182
259.83	21.880
260.19	21.289
260.56	20.536
260.93	10.648
261.30	20.136
261.67	18.914
262.03	14.812
262.40	14.154
262.77	19.854
263.14	17.373
263.50	23.818
263.87	19.883
264.24	15.550
264.61	20.804
264.97	15.238
265.34	23.644
265.71	17.437
266.07	16.079
266.44	21.706
266.81	20.089
267.18	18.803
267.54	22.747
267.91	20.415
268.28	20.073
268.64	21.858
269.01	15.532
269.38	19.615
269.75	17.045
270.11	20.175
270.48	15.869
270.85	18.848
271.21	20.216
271.58	19.430
271.95	17.470
272.32	18.313
272.68	21.930
273.05	22.372
273.42	17.885
273.78	20.635
274.15	23.686
274.52	18.499
274.88	16.316
275.25	14.456
275.62	14.908
275.98	18.496
276.35	16.348
276.72	24.161
277.08	19.865
277.45	23.244
277.82	21.619
278.18	15.974
278.55	25.041
278.92	20.325
279.28	20.345
279.65	18.713
280.01	14.837
280.38	17.845
280.75	21.166
281.11	20.296
281.48	17.349
281.85	19.427
282.21	19.835
282.58	21.713
282.95	18.692
283.31	15.873
283.68	19.333
284.04	20.158
284.41	23.190
284.78	18.829
285.14	13.261
285.51	22.283
285.87	21.915
286.24	20.508
286.61	15.776
286.97	17.974
287.34	15.112
287.70	15.237
288.07	24.638
288.44	21.527
288.80	16.667
289.17	14.775
289.53	23.423
289.90	22.091
290.26	23.070
290.63	19.442
291.00	13.462
291.36	14.501
291.73	21.199
292.09	22.182
292.46	21.165
292.82	19.731
293.19	18.663
293.56	17.487
293.92	18.959
294.29	16.900
294.65	13.817
295.02	21.473
295.38	20.176
295.75	15.085
296.11	17.860
296.48	15.271
296.84	17.652
297.21	23.464
297.57	21.321
297.94	19.705
298.30	19.982
298.67	20.154
299.04	16.483
299.40	21.134
299.77	23.851
300.13	19.071
300.50	22.089
300.86	21.307
301.23	19.402
301.59	21.026
301.96	21.912
302.32	20.327
302.69	22.504
303.05	16.228
303.42	16.485
303.78	23.583
304.14	23.199
304.51	23.858
304.87	17.965
305.24	19.677
305.60	21.939
305.97	18.683
306.33	21.886
306.70	22.204
307.06	21.784
307.43	21.586
307.79	18.379
308.16	22.980
308.52	21.205
308.88	17.707
309.25	20.681
309.61	21.593
309.98	20.191
310.34	17.763
310.71	21.406
311.07	16.420
311.44	18.765
311.80	20.500
312.16	17.071
312.53	21.087
312.89	21.439
313.26	16.552
313.62	19.728
313.98	19.331
314.35	22.099
314.71	18.084
315.08	21.207
315.44	11.541
315.80	19.613
316.17	19.617
316.53	20.405
316.90	16.629
317.26	15.616
317.62	23.484
317.99	16.115
318.35	18.691
318.72	18.201
319.08	16.433
319.44	20.027
319.81	13.456
320.17	16.775
320.53	17.340
320.90	20.659
321.26	14.763
321.62	12.317
321.99	16.855
322.35	16.037
322.72	16.886
323.08	20.353
323.44	17.198
323.81	20.226
324.17	15.723
324.53	15.695
324.90	15.527
325.26	16.748
325.62	14.833
325.99	14.047
326.35	13.636
326.71	13.033
327.08	17.318
327.44	18.621
327.80	12.826
328.16	14.981
328.53	16.123
328.89	15.398
329.25	14.182
329.62	12.456
329.98	11.925
330.34	15.433
330.71	13.466
331.07	14.590
331.43	11.193
331.79	14.581
332.16	13.572
332.52	14.455
332.88	14.862
333.24	14.503
333.61	13.853
333.97	10.653
334.33	10.780
334.70	14.468
335.06	13.546
335.42	14.416
335.78	13.390
336.15	10.012
336.51	12.867
336.87	11.862
337.23	12.441
337.60	9.452
337.96	14.384
338.32	10.713
338.68	13.537
339.04	10.830
339.41	11.606
339.77	10.738
340.13	11.460
340.49	12.379
340.86	9.722
341.22	10.573
341.58	9.035
341.94	9.693
342.30	11.502
342.67	9.276
343.03	8.403
343.39	8.619
343.75	7.318
344.11	9.962
344.48	9.297
344.84	9.257
345.20	9.554
345.56	8.456
345.92	8.951
346.28	7.476
346.65	7.390
347.01	7.149
347.37	8.641
347.73	11.073
348.09	7.747
348.45	7.797
348.82	6.082
349.18	7.270
349.54	8.344
349.90	7.145
350.26	6.939
350.62	6.921
350.98	9.034
351.35	7.678
351.71	8.180
352.07	6.824
352.43	7.675
352.79	6.411
353.15	8.765
353.51	7.646
353.87	6.681
354.24	6.629
354.60	6.610
354.96	6.736
355.32	6.810
355.68	6.648
356.04	6.489
356.40	6.297
356.76	7.620
357.12	6.159
357.48	5.774
357.85	5.338
358.21	6.386
358.57	5.698
358.93	5.709
359.29	5.252
359.65	6.650
360.01	4.920
360.37	6.161
360.73	5.780
361.09	5.251
361.45	5.427
361.81	4.886
362.17	6.391
362.53	5.607
362.89	4.989
363.25	4.942
363.62	5.631
363.98	4.698
364.34	6.388
364.70	5.089
365.06	5.453
365.42	4.684
365.78	5.170
366.14	5.670
366.50	4.657
366.86	5.070
367.22	4.309
367.58	5.300
367.94	5.895
368.30	4.759
368.66	4.333
369.02	5.702
369.38	3.724
369.74	4.775
370.10	5.414
370.46	5.287
370.82	4.053
371.18	5.339
371.54	5.033
371.90	4.747
372.26	4.791
372.62	4.357
372.98	5.275
373.33	4.612
373.69	4.235
374.05	4.623
374.41	4.902
374.77	4.200
375.13	5.088
375.49	4.729
375.85	4.262
376.21	3.838
376.57	4.405
376.93	4.745
377.29	4.477
377.65	4.111
378.01	4.518
378.37	4.663
378.73	4.691
379.08	4.857
379.44	4.354
379.80	4.930
380.16	4.336
380.52	4.215
380.88	4.681
381.24	4.170
381.60	4.849
381.96	4.604
382.32	4.863
382.67	4.828
383.03	4.961
383.39	5.247
383.75	5.256
384.11	5.275
384.47	5.210
384.83	5.014
385.19	5.056
385.54	4.677
385.90	5.139
386.26	5.657
386.62	5.995
386.98	5.218
387.34	5.578
387.70	5.385
388.05	6.175
388.41	5.982
388.77	5.999
389.13	5.966
389.49	5.802
389.85	6.194
390.20	6.319
390.56	6.039
390.92	5.941
391.28	6.254
391.64	6.638
391.99	6.713
392.35	6.870
392.71	6.437
393.07	6.817
393.43	6.726
393.78	7.558
394.14	7.136
394.50	7.187
394.86	7.228
395.22	7.112
395.57	7.866
395.93	7.449
396.29	7.998
396.65	7.906
397.00	7.876
397.36	8.214
397.72	7.850
398.08	8.020
398.43	8.322
398.79	8.193
399.15	8.423
399.51	8.508
399.86	8.795
400.22	8.747
400.58	9.023
400.94	8.764
401.29	8.825
401.65	9.255
402.01	9.067
402.37	9.214
402.72	9.476
403.08	9.363
403.44	9.405
403.79	9.111
404.15	9.775
404.51	9.812
404.86	10.130
405.22	10.012
405.58	9.804
405.94	10.025
406.29	9.906
406.65	10.358
407.01	10.635
407.36	10.573
407.72	10.889
408.08	11.131
408.43	11.157
408.79	10.946
409.15	11.192
409.50	11.325
409.86	11.249
410.22	11.784
410.57	11.844
410.93	11.739
411.29	11.778
411.64	11.862
412.00	11.969
412.35	12.145
412.71	12.016
413.07	12.309
413.42	12.320
413.78	12.287
414.14	12.498
414.49	12.607
414.85	12.735
415.20	12.781
415.56	13.208
415.92	12.996
416.27	13.307
416.63	13.549
416.98	13.561
417.34	13.632
417.70	13.703
418.05	13.593
418.41	13.702
418.76	13.967
419.12	13.929
419.47	13.989
419.83	14.297
420.19	14.456
420.54	14.262
420.90	14.382
421.25	14.650
421.61	14.768
421.96	14.964
422.32	14.807
422.67	15.069
423.03	15.075
423.39	15.087
423.74	15.272
424.10	15.433
424.45	15.434
424.81	15.589
425.16	15.566
425.52	15.640
425.87	15.861
426.23	15.960
426.58	16.079
426.94	16.230
427.29	16.336
427.65	16.238
428.00	16.612
428.36	16.545
428.71	16.455
429.07	16.779
429.42	16.762
429.78	16.932
430.13	17.059
430.49	17.086
430.84	17.208
431.19	17.394
431.55	17.507
431.90	17.495
432.26	17.608
432.61	17.852
432.97	17.825
433.32	17.892
433.68	17.935
434.03	18.136
434.39	18.296
434.74	18.291
435.09	18.276
435.45	18.516
435.80	18.441
436.16	18.707
436.51	18.750
436.86	18.887
437.22	18.835
437.57	18.984
437.93	19.068
438.28	19.133
438.63	19.229
438.99	19.292
439.34	19.366
439.70	19.446
440.05	19.594
440.40	19.695
440.76	19.702
441.11	19.707
441.47	19.733
441.82	19.937
442.17	20.015
442.53	19.978
442.88	20.212
443.23	20.144
443.59	20.152
443.94	20.362
444.29	20.456
444.65	20.657
445.00	20.578
445.35	20.598
445.71	20.693
446.06	20.911
446.41	20.994
446.77	21.022
447.12	21.169
447.47	21.149
447.83	21.168
448.18	21.140
448.53	21.478
448.89	21.489
449.24	21.554
449.59	21.574
449.94	21.648
450.30	21.826
450.65	21.929
451.00	21.961
451.36	22.230
451.71	22.148
452.06	22.218
452.41	22.142
452.77	22.391
453.12	22.389
453.47	22.498
453.82	22.629
454.18	22.665
454.53	22.809
454.88	22.954
455.23	22.998
455.59	23.000
455.94	23.070
456.29	23.142
456.64	23.212
457.00	23.579
457.35	23.585
457.70	23.647
458.05	23.814
458.40	23.744
458.76	23.744
459.11	23.764
459.46	24.031
459.81	24.052
460.16	24.005
460.52	24.103
460.87	24.174
461.22	24.312
461.57	24.472
461.92	24.487
462.28	24.608
462.63	24.717
462.98	24.704
463.33	24.820
463.68	24.921
464.03	24.921
464.38	24.985
464.74	25.212
465.09	25.257
465.44	25.206
465.79	25.284
466.14	25.390
466.49	25.372
466.84	25.433
467.20	25.566
467.55	25.561
467.90	25.648
468.25	25.474
468.60	25.623
468.95	25.773
469.30	25.791
469.65	25.931
470.00	25.954
470.36	26.019
470.71	26.154
471.06	26.099
471.41	26.098
471.76	26.091
472.11	26.209
472.46	26.166
472.81	26.334
473.16	26.332
473.51	26.244
473.86	26.311
474.21	26.273
474.56	26.390
474.91	26.332
475.26	26.459
475.62	26.372
475.97	26.390
476.32	26.433
476.67	26.275
477.02	26.340
477.37	26.448
477.72	26.423
478.07	26.434
478.42	26.491
478.77	26.392
479.12	26.284
479.47	26.520
479.82	26.413
480.17	26.353
480.52	26.378
480.87	26.422
481.22	26.329
481.57	26.454
481.92	26.344
482.27	26.324
482.62	26.354
482.97	26.328
483.32	26.373
483.67	26.372
484.02	26.304
484.36	26.310
484.71	26.369
485.06	26.290
485.41	26.383
485.76	26.348
486.11	26.427
486.46	26.405
486.81	26.427
487.16	26.566
487.51	26.585
487.86	26.664
488.21	26.674
488.56	26.629
488.91	26.684
489.25	26.750
489.60	26.833
489.95	26.891
490.30	26.971
490.65	27.023
491.00	27.059
491.35	27.099
491.70	27.216
492.05	27.271
492.39	27.331
492.74	27.410
493.09	27.439
493.44	27.523
493.79	27.607
494.14	27.679
494.49	27.671
494.83	27.764
495.18	27.891
495.53	27.914
495.88	28.006
496.23	28.118
496.58	28.167
496.92	28.285
497.27	28.329
497.62	28.416
497.97	28.450
498.32	28.600
498.67	28.668
499.01	28.738
499.36	28.807
499.71	28.946
500.06	28.951
500.41	29.050
500.75	29.067
501.10	29.110
501.45	29.217
501.80	29.220
502.14	29.278
502.49	29.386
502.84	29.423
503.19	29.498
503.53	29.563
503.88	29.585
504.23	29.628
504.58	29.718
504.92	29.734
505.27	29.739
505.62	29.808
505.97	29.810
506.31	29.894
506.66	29.874
507.01	29.887
507.36	29.872
507.70	29.942
508.05	29.900
508.40	29.902
508.74	30.015
509.09	29.926
509.44	29.931
509.79	29.809
510.13	29.885
510.48	29.801
510.83	29.876
511.17	29.856
511.52	29.738
511.87	29.802
512.21	29.741
512.56	29.766
512.91	29.802
513.25	29.856
513.60	29.861
513.95	29.910
514.29	29.949
514.64	30.000
514.98	30.051
515.33	30.103
515.68	30.121
516.02	30.220
516.37	30.165
516.72	30.261
517.06	30.222
517.41	30.312
517.75	30.351
518.10	30.399
518.45	30.423
518.79	30.522
519.14	30.527
519.48	30.599
519.83	30.502
520.18	30.538
520.52	30.599
520.87	30.627
521.21	30.622
521.56	30.670
521.90	30.709
522.25	30.700
522.60	30.716
522.94	30.670
523.29	30.823
523.63	30.748
523.98	30.699
524.32	30.703
524.67	30.692
525.01	30.673
525.36	30.647
525.70	30.699
526.05	30.616
526.39	30.565
526.74	30.532
527.08	30.502
527.43	30.456
527.77	30.380
528.12	30.262
528.46	30.264
528.81	30.183
529.15	30.110
529.50	30.089
529.84	29.920
530.19	29.905
530.53	29.803
530.88	29.656
531.22	29.563
531.57	29.457
531.91	29.318
532.26	29.232
532.60	29.084
532.94	28.882
533.29	28.830
533.63	28.624
533.98	28.407
534.32	28.315
534.67	28.071
535.01	27.886
535.35	27.746
535.70	27.602
536.04	27.381
536.39	27.138
536.73	26.909
537.07	26.746
537.42	26.520
537.76	26.326
538.11	26.074
538.45	25.865
538.79	25.671
539.14	25.422
539.48	25.255
539.82	25.105
540.17	24.883
540.51	24.663
540.85	24.541
541.20	24.373
541.54	24.213
541.89	24.035
542.23	23.964
542.57	23.772
542.92	23.756
543.26	23.620
543.60	23.444
543.94	23.501
544.29	23.395
544.63	23.325
544.97	23.261
545.32	23.212
545.66	23.239
546.00	23.257
546.35	23.156
546.69	23.231
547.03	23.230
547.37	23.217
547.72	23.270
548.06	23.365
548.40	23.392
548.75	23.494
549.09	23.533
549.43	23.593
549.77	23.620
550.12	23.757
550.46	23.852
550.80	23.933
551.14	24.009
551.49	24.015
551.83	24.280
552.17	24.403
552.51	24.508
552.85	24.709
553.20	24.846
553.54	25.024
553.88	25.150
554.22	25.335
554.56	25.565
554.91	25.878
555.25	26.079
555.59	26.273
555.93	26.565
556.27	26.770
556.62	26.956
556.96	27.285
557.30	27.457
557.64	27.738
557.98	28.041
558.32	28.248
558.67	28.507
559.01	28.764
559.35	28.989
559.69	29.286
560.03	29.480
560.37	29.777
560.71	30.063
561.05	30.233
561.40	30.394
561.74	30.602
562.08	30.874
562.42	31.154
562.76	31.367
563.10	31.546
563.44	31.732
563.78	31.922
564.12	32.092
564.46	32.270
564.81	32.412
565.15	32.527
565.49	32.718
565.83	32.870
566.17	32.922
566.51	33.091
566.85	33.123
567.19	33.304
567.53	33.283
567.87	33.422
568.21	33.357
568.55	33.451
568.89	33.519
569.23	33.536
569.57	33.550
569.91	33.488
570.25	33.563
570.59	33.512
570.93	33.490
571.27	33.426
571.61	33.461
571.95	33.392
572.29	33.355
572.63	33.214
572.97	33.227
573.31	33.146
573.65	33.011
573.99	32.937
574.33	32.924
574.67	32.758
575.01	32.594
575.35	32.528
575.69	32.449
576.03	32.313
576.37	32.223
576.71	32.122
577.05	31.932
577.39	31.762
577.73	31.583
578.06	31.414
578.40	31.393
578.74	31.137
579.08	30.978
579.42	30.799
579.76	30.621
580.10	30.357
580.44	30.199
580.78	30.007
581.12	29.818
581.45	29.629
581.79	29.452
582.13	29.229
582.47	29.094
582.81	28.876
583.15	28.631
583.49	28.523
583.83	28.342
584.16	28.106
584.50	27.946
584.84	27.841
585.18	27.736
585.52	27.533
585.86	27.375
586.19	27.200
586.53	27.060
586.87	26.931
587.21	26.738
587.55	26.540
587.88	26.470
588.22	26.258
588.56	26.086
588.90	25.948
589.24	25.734
589.57	25.559
589.91	25.332
590.25	25.034
590.59	24.845
590.92	24.662
591.26	24.427
591.60	24.161
591.94	23.983
592.27	23.689
592.61	23.466
592.95	23.186
593.29	22.910
593.62	22.664
593.96	22.346
594.30	21.980
594.64	21.674
594.97	21.360
595.31	20.980
595.65	20.643
595.98	20.268
596.32	19.830
596.66	19.453
597.00	18.955
597.33	18.542
597.67	18.103
598.01	17.580
598.34	17.183
598.68	16.775
599.02	16.272
599.35	15.854
599.69	15.442
600.03	15.015
600.36	14.658
600.70	14.343
601.03	13.989
601.37	13.681
601.71	13.397
602.04	13.076
602.38	12.778
602.72	12.510
603.05	12.235
603.39	11.977
603.72	11.745
604.06	11.462
604.40	11.197
604.73	10.928
605.07	10.656
605.40	10.371
605.74	10.102
606.08	9.799
606.41	9.509
606.75	9.235
607.08	8.966
607.42	8.682
607.75	8.386
608.09	8.132
608.42	7.880
608.76	7.599
609.10	7.323
609.43	7.053
609.77	6.781
610.10	6.477
610.44	6.272
610.77	6.000
611.11	5.769
611.44	5.516
611.78	5.298
612.11	5.063
612.45	4.843
612.78	4.619
613.12	4.381
613.45	4.224
613.79	4.027
614.12	3.813
614.46	3.626
614.79	3.501
615.13	3.316
615.46	3.176
615.79	3.003
616.13	2.872
616.46	2.758
616.80	2.655
617.13	2.553
617.47	2.468
617.80	2.381
618.13	2.291
618.47	2.207
618.80	2.120
619.14	2.062
619.47	1.999
619.81	1.940
620.14	1.857
620.47	1.824
620.81	1.745
621.14	1.718
621.47	1.684
621.81	1.613
622.14	1.576
622.48	1.522
622.81	1.492
623.14	1.468
623.48	1.448
623.81	1.396
624.14	1.380
624.48	1.344
624.81	1.343
625.14	1.304
625.48	1.319
625.81	1.295
626.14	1.288
626.48	1.289
626.81	1.300
627.14	1.271
627.48	1.286
627.81	1.290
628.14	1.313
628.47	1.383
628.81	1.348
629.14	1.388
629.47	1.383
629.81	1.448
630.14	1.483
630.47	1.542
630.80	1.566
631.14	1.622
631.47	1.706
631.80	1.780
632.13	1.845
632.47	1.914
632.80	2.028
633.13	2.092
633.46	2.236
633.79	2.344
634.13	2.451
634.46	2.602
634.79	2.751
635.12	2.911
635.45	3.057
635.79	3.204
636.12	3.404
636.45	3.601
636.78	3.790
637.11	3.953
637.45	4.183
637.78	4.408
638.11	4.649
638.44	4.880
638.77	5.115
639.10	5.395
639.44	5.606
639.77	5.837
640.10	6.115
640.43	6.390
640.76	6.609
641.09	6.892
641.42	7.171
641.75	7.420
642.08	7.710
642.42	7.958
642.75	8.262
643.08	8.488
643.41	8.745
643.74	9.000
644.07	9.268
644.40	9.537
644.73	9.762
645.06	10.035
645.39	10.255
645.72	10.470
646.05	10.733
646.38	10.957
646.72	11.169
647.05	11.351
647.38	11.587
647.71	11.753
648.04	11.927
648.37	12.065
648.70	12.229
649.03	12.332
649.36	12.472
649.69	12.528
650.02	12.685
650.35	12.751
650.68	12.792
651.01	12.797
651.34	12.833
651.67	12.800
652.00	12.770
652.33	12.695
652.66	12.611
652.99	12.506
653.31	12.405
653.64	12.255
653.97	12.086
654.30	11.907
654.63	11.692
654.96	11.426
655.29	11.209
655.62	10.940
655.95	10.698
656.28	10.431
656.61	10.127
656.94	9.820
657.27	9.551
657.60	9.289
657.92	9.047
658.25	8.750
658.58	8.520
658.91	8.277
659.24	8.010
659.57	7.853
659.90	7.604
660.23	7.399
660.55	7.181
660.88	7.010
661.21	6.827
661.54	6.594
661.87	6.446
662.20	6.267
662.52	6.077
662.85	5.927
663.18	5.769
663.51	5.596
663.84	5.429
664.16	5.276
664.49	5.175
664.82	5.029
665.15	4.899
665.48	4.751
665.80	4.643
666.13	4.522
666.46	4.422
666.79	4.314
667.12	4.184
667.44	4.084
667.77	4.028
668.10	3.926
668.43	3.831
668.75	3.741
669.08	3.688
669.41	3.607
669.73	3.554
670.06	3.486
670.39	3.444
670.72	3.379
671.04	3.295
671.37	3.232
671.70	3.187
672.02	3.165
672.35	3.080
672.68	3.097
673.00	3.033
673.33	2.993
673.66	2.986
673.98	2.950
674.31	2.926
674.64	2.869
674.96	2.859
675.29	2.842
675.62	2.867
675.94	2.820
676.27	2.817
676.60	2.797
676.92	2.810
677.25	2.763
677.58	2.743
677.90	2.748
678.23	2.766
678.55	2.690
678.88	2.734
679.21	2.708
679.53	2.692
679.86	2.713
680.18	2.660
680.51	2.630
680.83	2.607
681.16	2.601
681.49	2.605
681.81	2.595
682.14	2.567
682.46	2.517
682.79	2.530
683.11	2.486
683.44	2.448
683.76	2.449
684.09	2.466
684.41	2.451
684.74	2.409
685.06	2.395
685.39	2.389
685.71	2.376
686.04	2.371
686.36	2.346
686.69	2.334
687.01	2.347
687.34	2.314
687.66	2.302
687.99	2.293
688.31	2.251
688.64	2.235
688.96	2.234
689.29	2.161
689.61	2.176
689.93	2.134
690.26	2.111
690.58	2.083
690.91	2.058
691.23	2.027
691.56	2.004
691.88	1.929
692.20	1.861
692.53	1.874
692.85	1.824
693.18	1.773
693.50	1.718
693.82	1.670
694.15	1.632
694.47	1.566
694.79	1.496
695.12	1.481
695.44	1.418
695.76	1.345
696.09	1.301
696.41	1.238
696.73	1.169
697.06	1.108
697.38	1.075
697.70	1.005
698.03	0.966
698.35	0.916
698.67	0.841
699.00	0.794
699.32	0.776
699.64	0.689
699.97	0.655
700.29	0.634
700.61	0.600
700.93	0.547
701.26	0.532
701.58	0.480
701.90	0.477
702.22	0.448
702.55	0.435
702.87	0.375
703.19	0.371
703.51	0.370
703.84	0.332
704.16	0.314
704.48	0.316
704.80	0.290
705.13	0.259
705.45	0.294
705.77	0.294
706.09	0.261
706.41	0.248
706.74	0.223
707.06	0.240
707.38	0.180
707.70	0.188
708.02	0.243
708.34	0.209
708.67	0.203
708.99	0.240
709.31	0.205
709.63	0.201
709.95	0.201
710.27	0.213
710.59	0.197
710.92	0.205
711.24	0.162
711.56	0.189
711.88	0.189
712.20	0.172
712.52	0.231
712.84	0.178
713.16	0.207
713.48	0.174
713.80	0.190
714.12	0.141
714.45	0.182
714.77	0.120
715.09	0.171
715.41	0.176
715.73	0.200
716.05	0.182
716.37	0.154
716.69	0.171
717.01	0.183
717.33	0.152
717.65	0.193
717.97	0.224
718.29	0.208
718.61	0.228
718.93	0.214
719.25	0.230
719.57	0.186
719.89	0.179
720.21	0.187
720.53	0.215
720.85	0.227
721.17	0.203
721.49	0.196
721.81	0.173
722.13	0.224
722.45	0.224
722.77	0.236
723.09	0.240
723.41	0.272
723.72	0.225
724.04	0.229
724.36	0.247
724.68	0.268
725.00	0.214
725.32	0.297
725.64	0.204
725.96	0.232
726.28	0.238
726.60	0.281
726.91	0.318
727.23	0.236
727.55	0.319
727.87	0.299
728.19	0.300
728.51	0.262
728.83	0.347
729.14	0.336
729.46	0.385
729.78	0.344
730.10	0.263
730.42	0.289
730.74	0.250
731.05	0.363
731.37	0.300
731.69	0.313
732.01	0.279
732.33	0.252
732.64	0.383
732.96	0.317
733.28	0.324
733.60	0.330
733.92	0.365
734.23	0.276
734.55	0.287
734.87	0.268
735.19	0.305
735.50	0.279
735.82	0.397
736.14	0.337
736.45	0.262
736.77	0.253
737.09	0.321
737.41	0.251
737.72	0.357
738.04	0.301
738.36	0.271
738.67	0.263
738.99	0.304
739.31	0.347
739.63	0.274
739.94	0.251
740.26	0.253
740.58	0.187
740.89	0.274
741.21	0.268
741.52	0.275
741.84	0.262
742.16	0.274
742.47	0.306
742.79	0.329
743.11	0.373
743.42	0.226
743.74	0.277
744.05	0.260
744.37	0.195
744.69	0.236
745.00	0.235
745.32	0.233
745.63	0.263
745.95	0.201
746.27	0.185
746.58	0.240
746.90	0.253
747.21	0.223
747.53	0.269
747.84	0.243
748.16	0.228
748.47	0.254
748.79	0.263
749.10	0.231
749.42	0.250
749.74	0.244
750.05	0.243
750.37	0.263
750.68	0.207
751.00	0.216
751.31	0.168
751.62	0.175
751.94	0.153
752.25	0.212
752.57	0.241
752.88	0.198
753.20	0.252
753.51	0.133
753.83	0.123
754.14	0.236
754.46	0.215
754.77	0.214
755.08	0.203
755.40	0.205
755.71	0.248
756.03	0.219
756.34	0.176
756.66	0.170
756.97	0.155
757.28	0.125
757.60	0.128
757.91	0.183
758.22	0.167
758.54	0.123
758.85	0.193
759.17	0.164
759.48	0.147
759.79	0.219
760.11	0.200
760.42	0.216
760.73	0.185
761.05	0.216
761.36	0.145
761.67	0.169
761.99	0.177
762.30	0.140
762.61	0.181
762.92	0.232
763.24	0.178
763.55	0.183
763.86	0.177
764.18	0.176
764.49	0.197
764.80	0.151
765.11	0.179
765.43	0.196
765.74	0.175
766.05	0.201
766.36	0.183
766.68	0.198
766.99	0.148
767.30	0.131
767.61	0.162
767.93	0.195
768.24	0.138
768.55	0.159
768.86	0.171
769.17	0.172
769.49	0.122
769.80	0.115
770.11	0.185
770.42	0.153
770.73	0.147
771.04	0.168
771.36	0.131
771.67	0.169
771.98	0.169
772.29	0.182
772.60	0.127
772.91	0.168
773.22	0.218
773.54	0.172
773.85	0.144
774.16	0.152
774.47	0.176
774.78	0.154
775.09	0.108
775.40	0.138
775.71	0.187
776.02	0.163
776.33	0.159
776.64	0.122
776.96	0.211
777.27	0.187
777.58	0.140
777.89	0.148
778.20	0.179
778.51	0.127
778.82	0.185
779.13	0.162
779.44	0.228
779.75	0.162
780.06	0.136
780.37	0.199
780.68	0.152
780.99	0.177
781.30	0.194
781.61	0.160
781.92	0.208
782.23	0.233
782.54	0.189
782.85	0.126
783.16	0.212
783.47	0.131
783.78	0.157
784.08	0.187
784.39	0.129
784.70	0.208
785.01	0.220
785.32	0.117
785.63	0.196
785.94	0.225
786.25	0.226
786.56	0.186
786.87	0.135
787.18	0.224
787.48	0.221
787.79	0.206
788.10	0.228
788.41	0.120
788.72	0.192
789.03	0.168
789.34	0.229
789.64	0.204
789.95	0.276
790.26	0.203
790.57	0.179
790.88	0.227
791.19	0.262
791.49	0.291
791.80	0.172
792.11	0.136
792.42	0.197
792.73	0.195
793.03	0.265
793.34	0.168
793.65	0.172
793.96	0.203
794.27	0.099
794.57	0.192
794.88	0.232
795.19	0.157
795.50	0.289
795.80	0.243
796.11	0.163
796.42	0.187
796.72	0.330
797.03	0.227
797.34	0.259
797.65	0.278
797.95	0.314
798.26	0.168
798.57	0.245
798.87	0.226
799.18	0.340
799.49	0.317
799.79	0.313
800.10	0.284
800.41	0.205
800.71	0.244
801.02	0.220
801.33	0.274
801.63	0.232
801.94	0.345
802.24	0.270
802.55	0.270
802.86	0.253
803.16	0.431
803.47	0.399
803.77	0.390
804.08	0.324
804.39	0.210
804.69	0.309
805.00	0.333
805.30	0.172
805.61	0.402
805.91	0.302
806.22	0.374
806.53	0.295
806.83	0.324
807.14	0.367
807.44	0.321
807.75	0.215
808.05	0.414
808.36	0.473
808.66	0.429
808.97	0.397
809.27	0.285
809.58	0.395
809.88	0.388
810.19	0.297
810.49	0.350
810.80	0.373
811.10	0.423
811.41	0.529
811.71	0.429
812.01	0.366
812.32	0.495
812.62	0.249
812.93	0.311
813.23	0.222
813.54	0.501
813.84	0.507
814.14	0.434
814.45	0.676
814.75	0.332
815.06	0.480
815.36	0.388
815.66	0.308
815.97	0.362
816.27	0.287
816.58	0.434
816.88	0.375
817.18	0.668
817.49	0.752
817.79	0.761
818.09	0.366
818.40	0.293
818.70	0.394
819.00	0.461
819.31	0.487
819.61	0.358
819.91	0.443
820.21	0.522
820.52	0.650
820.82	0.625
821.12	0.457
821.43	0.524
821.73	0.601
822.03	0.699
822.33	0.534
822.64	0.692
822.94	0.515
823.24	0.688
823.54	0.545
823.85	0.605
824.15	0.743
824.45	0.719
824.75	0.662
825.05	0.623
825.36	0.654
825.66	0.867
825.96	0.513
826.26	0.891
826.56	0.433
826.87	1.257
827.17	0.760
827.47	1.022
827.77	1.183
828.07	0.385
828.37	0.821
828.67	0.920
828.98	0.909
829.28	0.815
829.58	1.004
829.88	0.787
830.18	0.476
830.48	1.034
830.78	1.088
831.08	0.987
831.38	0.952
831.69	1.236
831.99	0.715
832.29	0.784
832.59	1.211
832.89	1.130
833.19	1.301
833.49	1.231
833.79	1.050
834.09	1.230
834.39	1.031
834.69	1.332
834.99	1.021
835.29	0.987
835.59	1.164
835.89	1.245
836.19	1.767
836.49	1.823
836.79	1.452
837.09	1.330
837.39	1.040
837.69	1.116
837.99	2.258
838.29	1.375
838.59	1.333
838.89	1.673
839.19	1.642
839.49	2.002
839.79	1.487
840.09	1.414
840.39	2.788
840.68	2.093
840.98	2.514
841.28	2.308
841.58	1.869
841.88	1.980
842.18	1.966
842.48	1.358
842.78	1.916
843.08	2.442
843.37	2.238
843.67	1.842
843.97	2.285
844.27	3.026
844.57	2.395
844.87	2.428
845.16	2.281
845.46	2.818
845.76	2.481
846.06	2.544
846.36	4.003
846.66	3.110
846.95	3.125
847.25	2.461
847.55	2.505
847.85	2.894
848.14	4.293
848.44	2.534
848.74	3.008
849.04	2.392
849.33	4.023
849.63	4.120
849.93	2.661
850.23	4.054
850.52	2.022
850.82	4.603
851.12	4.768
851.42	3.991
851.71	4.415
852.01	2.889
852.31	3.212
852.60	3.017
852.90	3.279
853.20	5.283
853.49	2.577
853.79	5.140
854.09	4.815
854.38	7.958
854.68	6.153
854.98	4.344
855.27	5.626
855.57	4.344
855.86	5.213
856.16	2.725
856.46	6.610
856.75	5.522
857.05	6.267
857.34	4.718
857.64	5.415
857.94	5.206
858.23	5.544
858.53	5.139
858.82	3.438
859.12	5.395
859.41	2.665
859.71	2.765
860.01	5.301
860.30	6.988
860.60	3.860
860.89	5.975
861.19	5.085
861.48	4.750
861.78	3.677
862.07	4.499
862.37	4.875
862.66	4.234
862.96	5.385
863.25	6.917
863.55	5.515
863.84	4.136
864.13	3.492
864.43	5.948
864.72	6.068
865.02	4.531
865.31	8.551
865.61	6.041
865.90	3.026
866.19	6.593
866.49	6.568
866.78	4.454
867.08	7.325
867.37	4.807
867.66	5.230
867.96	3.177
868.25	2.793
868.55	6.343
868.84	6.255
869.13	4.703
869.43	3.800
869.72	5.248
870.01	4.941
870.31	5.938
870.60	7.934
870.89	5.689
871.19	6.354
871.48	4.738
871.77	6.504
872.07	5.387
872.36	5.676
872.65	4.356
872.94	6.727
873.24	6.691
873.53	4.562
873.82	2.964
874.11	5.397
874.41	2.187
874.70	5.080
>>>>>End Processed Spectral Data<<<<<
