SpectraSuite Data File
++++++++++++++++++++++++++++++++++++
Date: Tue Apr 28 19:00:45 BST 2015
User: mpfc3
Dark Spectrum Present: Yes
Reference Spectrum Present: Yes
Number of Sampled Component Spectra: 1
Spectrometers: USB2E3636
Integration Time (usec): 30000 (USB2E3636)
Spectra Averaged: 100 (USB2E3636)
Boxcar Smoothing: 0 (USB2E3636)
Correct for Electrical Dark: No (USB2E3636)
Strobe/Lamp Enabled: No (USB2E3636)
Correct for Detector Non-linearity: No (USB2E3636)
Correct for Stray Light: No (USB2E3636)
Number of Pixels in Processed Spectrum: 2048
>>>>>Begin Processed Spectral Data<<<<<
180.28	0.000
180.65	210.626
181.02	191.351
181.39	217.155
181.77	206.362
182.14	223.142
182.51	214.949
182.88	207.806
183.25	208.571
183.63	213.278
184.00	242.892
184.37	211.702
184.74	205.357
185.11	233.408
185.49	217.797
185.86	200.000
186.23	242.032
186.60	239.387
186.97	206.513
187.35	215.991
187.72	219.687
188.09	225.843
188.46	216.525
188.83	216.461
189.20	-1060.000
189.58	-57.582
189.95	-65.688
190.32	-64.960
190.69	-62.302
191.06	-65.917
191.43	-61.348
191.81	-65.498
192.18	-60.994
192.55	-60.552
192.92	-62.446
193.29	-60.243
193.66	-61.115
194.03	-62.174
194.41	-57.589
194.78	-64.214
195.15	-58.062
195.52	-58.607
195.89	-58.771
196.26	-57.684
196.63	-65.305
197.01	-55.624
197.38	-58.683
197.75	-64.311
198.12	-60.358
198.49	-59.723
198.86	-63.173
199.23	-61.841
199.60	-68.635
199.98	-63.681
200.35	-68.041
200.72	-59.901
201.09	-63.873
201.46	-59.548
201.83	-69.453
202.20	-56.687
202.57	-63.390
202.94	-62.349
203.31	-61.065
203.69	-56.995
204.06	-63.277
204.43	-61.243
204.80	-66.739
205.17	-62.359
205.54	-64.056
205.91	-54.461
206.28	-58.683
206.65	-64.038
207.02	-65.695
207.39	-66.438
207.76	-62.028
208.14	-63.003
208.51	-65.571
208.88	-67.794
209.25	-59.927
209.62	-59.492
209.99	-63.473
210.36	-67.671
210.73	-65.108
211.10	-66.254
211.47	-65.880
211.84	-71.569
212.21	-73.068
212.58	-62.682
212.95	-65.426
213.32	-68.189
213.69	-76.917
214.06	-68.200
214.43	-65.922
214.80	-64.390
215.17	-65.244
215.55	-64.553
215.92	-65.224
216.29	-67.902
216.66	-76.135
217.03	-63.651
217.40	-72.816
217.77	-69.928
218.14	-72.276
218.51	-75.786
218.88	-69.418
219.25	-70.385
219.62	-74.454
219.99	-70.840
220.36	-65.989
220.73	-69.051
221.10	-70.603
221.47	-77.523
221.84	-76.471
222.21	-73.638
222.58	-74.090
222.95	-71.973
223.32	-73.865
223.69	-78.467
224.06	-80.670
224.43	-75.127
224.80	-74.361
225.17	-75.177
225.54	-75.243
225.91	-71.126
226.27	-65.188
226.64	-78.686
227.01	-76.311
227.38	-73.638
227.75	-75.434
228.12	-84.938
228.49	-80.776
228.86	-77.352
229.23	-74.619
229.60	-85.368
229.97	-80.780
230.34	-77.848
230.71	-77.177
231.08	-91.765
231.45	-90.686
231.82	-81.761
232.19	-90.963
232.56	-77.961
232.93	-84.461
233.30	-69.912
233.66	-92.928
234.03	-76.838
234.40	-74.513
234.77	-81.750
235.14	-96.881
235.51	-80.952
235.88	-86.176
236.25	-86.390
236.62	-88.964
236.99	-91.481
237.36	-92.167
237.73	-84.286
238.09	-87.253
238.46	-97.297
238.83	-96.957
239.20	-89.379
239.57	-92.695
239.94	-90.371
240.31	-89.130
240.68	-79.648
241.05	-93.212
241.41	-82.709
241.78	-86.255
242.15	-91.470
242.52	-97.477
242.89	-88.945
243.26	-94.606
243.63	-86.561
244.00	-100.324
244.36	-93.717
244.73	-95.005
245.10	-101.961
245.47	-97.323
245.84	-96.691
246.21	-88.025
246.58	-87.675
246.94	-93.110
247.31	-90.157
247.68	-94.726
248.05	-89.372
248.42	-92.474
248.79	-100.220
249.15	-102.067
249.52	-87.205
249.89	-96.043
250.26	-87.438
250.63	-100.341
251.00	-91.501
251.36	-100.664
251.73	-93.621
252.10	-94.056
252.47	-93.189
252.84	-103.140
253.20	-101.604
253.57	-100.341
253.94	-97.898
254.31	-89.431
254.68	-86.256
255.05	-92.755
255.41	-103.160
255.78	-101.446
256.15	-100.335
256.52	-100.658
256.88	-94.598
257.25	-104.176
257.62	-111.562
257.99	-113.302
258.36	-114.777
258.72	-108.552
259.09	-95.233
259.46	-121.465
259.83	-106.444
260.19	-102.762
260.56	-101.121
260.93	-99.233
261.30	-106.530
261.67	-110.824
262.03	-109.360
262.40	-111.271
262.77	-110.116
263.14	-100.225
263.50	-95.141
263.87	-106.595
264.24	-91.271
264.61	-106.064
264.97	-110.913
265.34	-86.938
265.71	-103.505
266.07	-109.806
266.44	-93.880
266.81	-117.091
267.18	-105.984
267.54	-108.224
267.91	-95.657
268.28	-99.333
268.64	-105.976
269.01	-101.030
269.38	-111.339
269.75	-111.177
270.11	-110.932
270.48	-117.189
270.85	-105.511
271.21	-102.130
271.58	-111.957
271.95	-97.583
272.32	-105.569
272.68	-104.898
273.05	-101.367
273.42	-117.061
273.78	-116.035
274.15	-106.985
274.52	-96.644
274.88	-107.308
275.25	-100.000
275.62	-110.000
275.98	-107.765
276.35	-111.016
276.72	-105.181
277.08	-106.627
277.45	-108.050
277.82	-121.964
278.18	-109.914
278.55	-121.608
278.92	-99.767
279.28	-115.629
279.65	-102.417
280.01	-109.124
280.38	-103.301
280.75	-115.511
281.11	-102.012
281.48	-102.138
281.85	-102.027
282.21	-124.868
282.58	-109.220
282.95	-96.023
283.31	-121.322
283.68	-113.951
284.04	-98.432
284.41	-114.631
284.78	-94.818
285.14	-104.663
285.51	-93.476
285.87	-123.545
286.24	-111.970
286.61	-106.517
286.97	-104.691
287.34	-107.407
287.70	-99.410
288.07	-105.911
288.44	-93.898
288.80	-100.585
289.17	-102.259
289.53	-105.263
289.90	-118.148
290.26	-108.045
290.63	-117.407
291.00	-123.415
291.36	-107.931
291.73	-108.047
292.09	-112.361
292.46	-107.398
292.82	-90.276
293.19	-106.829
293.56	-108.146
293.92	-95.578
294.29	-104.587
294.65	-106.075
295.02	-97.727
295.38	-93.943
295.75	-102.081
296.11	-114.870
296.48	-103.744
296.84	-94.725
297.21	-101.353
297.57	-116.304
297.94	-114.777
298.30	-110.667
298.67	-107.279
299.04	-91.611
299.40	-100.568
299.77	-104.802
300.13	-95.023
300.50	-101.632
300.86	-112.530
301.23	-97.424
301.59	-96.878
301.96	-85.969
302.32	-98.230
302.69	-115.246
303.05	-96.388
303.42	-101.540
303.78	-101.482
304.14	-90.574
304.51	-96.953
304.87	-96.838
305.24	-96.355
305.60	-95.693
305.97	-96.685
306.33	-95.354
306.70	-80.509
307.06	-86.412
307.43	-87.618
307.79	-86.010
308.16	-92.719
308.52	-82.828
308.88	-81.919
309.25	-91.710
309.61	-87.732
309.98	-89.892
310.34	-101.768
310.71	-91.755
311.07	-84.098
311.44	-89.215
311.80	-90.063
312.16	-82.122
312.53	-88.017
312.89	-89.922
313.26	-83.250
313.62	-67.880
313.98	-73.988
314.35	-81.384
314.71	-77.911
315.08	-80.740
315.44	-73.374
315.80	-78.918
316.17	-84.363
316.53	-76.372
316.90	-78.928
317.26	-72.162
317.62	-83.817
317.99	-84.491
318.35	-80.073
318.72	-74.824
319.08	-74.055
319.44	-76.508
319.81	-73.886
320.17	-72.024
320.53	-64.075
320.90	-71.562
321.26	-75.021
321.62	-72.335
321.99	-73.641
322.35	-69.468
322.72	-71.356
323.08	-68.977
323.44	-70.565
323.81	-60.015
324.17	-77.040
324.53	-64.006
324.90	-64.911
325.26	-61.997
325.62	-65.287
325.99	-64.916
326.35	-59.142
326.71	-62.111
327.08	-55.746
327.44	-56.486
327.80	-58.784
328.16	-52.008
328.53	-60.781
328.89	-59.487
329.25	-60.534
329.62	-44.376
329.98	-43.900
330.34	-48.782
330.71	-50.856
331.07	-57.097
331.43	-52.481
331.79	-41.738
332.16	-44.234
332.52	-50.513
332.88	-41.877
333.24	-44.408
333.61	-44.633
333.97	-43.458
334.33	-46.720
334.70	-40.812
335.06	-44.110
335.42	-40.728
335.78	-38.280
336.15	-40.249
336.51	-40.039
336.87	-37.655
337.23	-40.315
337.60	-37.751
337.96	-37.631
338.32	-35.695
338.68	-32.937
339.04	-36.674
339.41	-35.478
339.77	-31.839
340.13	-32.021
340.49	-29.928
340.86	-33.971
341.22	-35.389
341.58	-32.961
341.94	-31.575
342.30	-31.985
342.67	-31.192
343.03	-31.011
343.39	-28.504
343.75	-27.875
344.11	-29.485
344.48	-30.810
344.84	-27.294
345.20	-30.756
345.56	-27.424
345.92	-25.008
346.28	-27.562
346.65	-24.937
347.01	-25.062
347.37	-27.148
347.73	-25.714
348.09	-25.961
348.45	-22.054
348.82	-25.602
349.18	-24.414
349.54	-23.627
349.90	-24.501
350.26	-22.274
350.62	-20.235
350.98	-19.808
351.35	-21.095
351.71	-20.930
352.07	-17.902
352.43	-19.878
352.79	-18.824
353.15	-19.373
353.51	-19.441
353.87	-18.051
354.24	-17.818
354.60	-17.951
354.96	-16.380
355.32	-17.694
355.68	-17.648
356.04	-16.667
356.40	-15.339
356.76	-16.902
357.12	-14.462
357.48	-16.646
357.85	-16.816
358.21	-16.899
358.57	-15.421
358.93	-16.620
359.29	-15.677
359.65	-16.335
360.01	-15.511
360.37	-13.798
360.73	-14.857
361.09	-15.279
361.45	-13.750
361.81	-13.154
362.17	-13.646
362.53	-13.016
362.89	-12.019
363.25	-13.558
363.62	-13.059
363.98	-13.366
364.34	-11.759
364.70	-12.194
365.06	-11.510
365.42	-11.543
365.78	-11.590
366.14	-11.113
366.50	-11.167
366.86	-10.614
367.22	-11.076
367.58	-10.367
367.94	-10.956
368.30	-11.167
368.66	-9.067
369.02	-10.563
369.38	-9.802
369.74	-10.041
370.10	-9.482
370.46	-9.718
370.82	-8.408
371.18	-9.596
371.54	-8.514
371.90	-9.320
372.26	-7.947
372.62	-8.528
372.98	-8.485
373.33	-8.881
373.69	-8.188
374.05	-8.042
374.41	-9.238
374.77	-8.123
375.13	-7.241
375.49	-7.449
375.85	-7.754
376.21	-7.713
376.57	-7.631
376.93	-6.992
377.29	-6.495
377.65	-6.590
378.01	-6.751
378.37	-6.082
378.73	-6.382
379.08	-5.900
379.44	-6.553
379.80	-6.076
380.16	-6.419
380.52	-5.496
380.88	-6.232
381.24	-5.900
381.60	-5.856
381.96	-4.726
382.32	-5.041
382.67	-4.650
383.03	-5.117
383.39	-4.237
383.75	-5.092
384.11	-4.076
384.47	-4.088
384.83	-4.311
385.19	-3.967
385.54	-3.699
385.90	-3.538
386.26	-3.347
386.62	-3.442
386.98	-3.193
387.34	-3.284
387.70	-2.055
388.05	-2.580
388.41	-3.002
388.77	-2.465
389.13	-1.960
389.49	-2.204
389.85	-1.882
390.20	-1.078
390.56	-1.113
390.92	-1.525
391.28	-1.541
391.64	-1.074
391.99	-0.818
392.35	-1.272
392.71	-0.742
393.07	-0.583
393.43	-0.531
393.78	-0.619
394.14	-0.037
394.50	-0.296
394.86	0.123
395.22	0.199
395.57	0.596
395.93	0.751
396.29	0.569
396.65	1.064
397.00	1.017
397.36	1.517
397.72	0.760
398.08	1.895
398.43	1.716
398.79	1.738
399.15	1.959
399.51	2.362
399.86	2.474
400.22	2.640
400.58	2.203
400.94	2.926
401.29	3.237
401.65	3.233
402.01	3.479
402.37	3.670
402.72	3.446
403.08	3.756
403.44	3.870
403.79	4.203
404.15	4.120
404.51	4.321
404.86	4.066
405.22	4.563
405.58	4.952
405.94	5.014
406.29	5.303
406.65	5.364
407.01	5.372
407.36	5.498
407.72	5.740
408.08	5.840
408.43	5.686
408.79	5.947
409.15	6.216
409.50	6.220
409.86	6.399
410.22	6.445
410.57	6.625
410.93	6.698
411.29	6.999
411.64	7.203
412.00	7.456
412.35	7.511
412.71	7.483
413.07	7.651
413.42	7.715
413.78	7.825
414.14	8.298
414.49	8.237
414.85	8.319
415.20	8.690
415.56	8.755
415.92	8.786
416.27	8.921
416.63	9.401
416.98	9.225
417.34	9.541
417.70	9.713
418.05	9.935
418.41	9.506
418.76	10.054
419.12	10.070
419.47	10.156
419.83	10.358
420.19	10.683
420.54	10.686
420.90	10.778
421.25	11.144
421.61	10.885
421.96	11.043
422.32	11.233
422.67	11.346
423.03	11.461
423.39	12.008
423.74	11.780
424.10	11.891
424.45	12.199
424.81	12.219
425.16	12.228
425.52	12.465
425.87	12.776
426.23	12.680
426.58	12.696
426.94	13.133
427.29	13.524
427.65	13.265
428.00	13.422
428.36	13.564
428.71	13.615
429.07	13.744
429.42	13.777
429.78	13.843
430.13	14.141
430.49	14.294
430.84	14.376
431.19	14.573
431.55	14.573
431.90	14.795
432.26	14.558
432.61	15.007
432.97	15.076
433.32	15.332
433.68	15.405
434.03	15.314
434.39	15.716
434.74	15.641
435.09	15.735
435.45	15.884
435.80	16.180
436.16	16.209
436.51	16.222
436.86	16.322
437.22	16.477
437.57	16.492
437.93	16.576
438.28	16.772
438.63	16.796
438.99	17.029
439.34	16.980
439.70	17.125
440.05	17.301
440.40	17.520
440.76	17.651
441.11	17.707
441.47	17.713
441.82	17.942
442.17	17.989
442.53	18.003
442.88	18.342
443.23	18.279
443.59	18.416
443.94	18.571
444.29	18.621
444.65	18.720
445.00	18.876
445.35	19.026
445.71	19.048
446.06	19.104
446.41	19.260
446.77	19.094
447.12	19.367
447.47	19.393
447.83	19.497
448.18	19.681
448.53	19.685
448.89	19.820
449.24	19.878
449.59	19.946
449.94	19.978
450.30	20.349
450.65	20.136
451.00	20.486
451.36	20.488
451.71	20.689
452.06	20.879
452.41	20.829
452.77	21.036
453.12	21.062
453.47	21.220
453.82	21.281
454.18	21.394
454.53	21.408
454.88	21.606
455.23	21.760
455.59	21.895
455.94	21.862
456.29	22.107
456.64	21.843
457.00	22.269
457.35	22.148
457.70	22.225
458.05	22.497
458.40	22.540
458.76	22.676
459.11	22.931
459.46	22.845
459.81	22.974
460.16	23.100
460.52	23.177
460.87	23.313
461.22	23.275
461.57	23.407
461.92	23.536
462.28	23.549
462.63	23.630
462.98	23.893
463.33	23.947
463.68	24.034
464.03	24.064
464.38	24.196
464.74	24.159
465.09	24.536
465.44	24.469
465.79	24.555
466.14	24.704
466.49	24.551
466.84	24.842
467.20	24.813
467.55	24.996
467.90	24.868
468.25	25.017
468.60	25.229
468.95	25.340
469.30	25.302
469.65	25.423
470.00	25.492
470.36	25.574
470.71	25.566
471.06	25.656
471.41	25.620
471.76	25.787
472.11	25.807
472.46	25.863
472.81	25.944
473.16	26.003
473.51	26.032
473.86	26.015
474.21	26.197
474.56	26.055
474.91	26.246
475.26	26.280
475.62	26.269
475.97	26.263
476.32	26.378
476.67	26.368
477.02	26.244
477.37	26.343
477.72	26.404
478.07	26.407
478.42	26.441
478.77	26.426
479.12	26.411
479.47	26.438
479.82	26.396
480.17	26.467
480.52	26.511
480.87	26.494
481.22	26.591
481.57	26.519
481.92	26.534
482.27	26.536
482.62	26.511
482.97	26.488
483.32	26.546
483.67	26.577
484.02	26.573
484.36	26.675
484.71	26.586
485.06	26.663
485.41	26.631
485.76	26.635
486.11	26.710
486.46	26.757
486.81	26.876
487.16	26.854
487.51	26.897
487.86	26.941
488.21	27.103
488.56	27.098
488.91	27.073
489.25	27.174
489.60	27.287
489.95	27.346
490.30	27.386
490.65	27.417
491.00	27.525
491.35	27.544
491.70	27.618
492.05	27.783
492.39	27.887
492.74	27.856
493.09	28.022
493.44	27.949
493.79	28.115
494.14	28.241
494.49	28.272
494.83	28.353
495.18	28.376
495.53	28.546
495.88	28.549
496.23	28.742
496.58	28.813
496.92	28.933
497.27	28.927
497.62	29.078
497.97	29.043
498.32	29.239
498.67	29.267
499.01	29.303
499.36	29.405
499.71	29.467
500.06	29.515
500.41	29.648
500.75	29.677
501.10	29.737
501.45	29.882
501.80	29.830
502.14	29.859
502.49	29.891
502.84	30.087
503.19	30.058
503.53	30.167
503.88	30.234
504.23	30.243
504.58	30.299
504.92	30.337
505.27	30.344
505.62	30.415
505.97	30.467
506.31	30.502
506.66	30.588
507.01	30.531
507.36	30.494
507.70	30.570
508.05	30.510
508.40	30.630
508.74	30.581
509.09	30.527
509.44	30.460
509.79	30.467
510.13	30.441
510.48	30.427
510.83	30.379
511.17	30.412
511.52	30.369
511.87	30.371
512.21	30.277
512.56	30.377
512.91	30.380
513.25	30.453
513.60	30.413
513.95	30.457
514.29	30.494
514.64	30.557
514.98	30.598
515.33	30.628
515.68	30.668
516.02	30.725
516.37	30.672
516.72	30.738
517.06	30.777
517.41	30.945
517.75	30.804
518.10	30.927
518.45	30.889
518.79	30.960
519.14	30.962
519.48	31.022
519.83	31.069
520.18	31.037
520.52	31.064
520.87	31.071
521.21	31.045
521.56	31.164
521.90	31.069
522.25	31.102
522.60	31.007
522.94	31.105
523.29	31.087
523.63	31.071
523.98	31.095
524.32	31.066
524.67	30.980
525.01	31.000
525.36	30.965
525.70	30.970
526.05	30.934
526.39	30.938
526.74	30.855
527.08	30.809
527.43	30.719
527.77	30.719
528.12	30.513
528.46	30.513
528.81	30.442
529.15	30.458
529.50	30.254
529.84	30.251
530.19	30.029
530.53	30.062
530.88	29.799
531.22	29.754
531.57	29.646
531.91	29.463
532.26	29.353
532.60	29.241
532.94	29.025
533.29	28.965
533.63	28.807
533.98	28.528
534.32	28.413
534.67	28.221
535.01	27.972
535.35	27.731
535.70	27.545
536.04	27.327
536.39	27.210
536.73	26.919
537.07	26.722
537.42	26.528
537.76	26.312
538.11	26.112
538.45	25.897
538.79	25.668
539.14	25.385
539.48	25.232
539.82	25.099
540.17	24.843
540.51	24.688
540.85	24.505
541.20	24.283
541.54	24.129
541.89	23.903
542.23	23.889
542.57	23.804
542.92	23.577
543.26	23.479
543.60	23.400
543.94	23.347
544.29	23.233
544.63	23.117
544.97	23.127
545.32	23.105
545.66	23.034
546.00	23.042
546.35	23.065
546.69	23.005
547.03	23.045
547.37	23.084
547.72	23.097
548.06	23.139
548.40	23.164
548.75	23.243
549.09	23.317
549.43	23.331
549.77	23.404
550.12	23.440
550.46	23.566
550.80	23.675
551.14	23.717
551.49	23.824
551.83	24.003
552.17	24.125
552.51	24.281
552.85	24.392
553.20	24.508
553.54	24.745
553.88	24.931
554.22	25.074
554.56	25.274
554.91	25.566
555.25	25.706
555.59	25.936
555.93	26.229
556.27	26.386
556.62	26.595
556.96	26.914
557.30	27.062
557.64	27.327
557.98	27.601
558.32	27.807
558.67	28.055
559.01	28.380
559.35	28.513
559.69	28.800
560.03	29.021
560.37	29.318
560.71	29.528
561.05	29.739
561.40	29.902
561.74	30.171
562.08	30.384
562.42	30.581
562.76	30.833
563.10	31.015
563.44	31.107
563.78	31.325
564.12	31.477
564.46	31.722
564.81	31.841
565.15	31.905
565.49	32.064
565.83	32.247
566.17	32.305
566.51	32.355
566.85	32.463
567.19	32.560
567.53	32.658
567.87	32.730
568.21	32.773
568.55	32.773
568.89	32.840
569.23	32.909
569.57	32.810
569.91	32.832
570.25	32.882
570.59	32.831
570.93	32.839
571.27	32.785
571.61	32.750
571.95	32.740
572.29	32.640
572.63	32.635
572.97	32.584
573.31	32.480
573.65	32.493
573.99	32.328
574.33	32.193
574.67	32.091
575.01	32.056
575.35	31.864
575.69	31.776
576.03	31.721
576.37	31.601
576.71	31.431
577.05	31.301
577.39	31.158
577.73	30.927
578.06	30.824
578.40	30.681
578.74	30.492
579.08	30.321
579.42	30.137
579.76	29.963
580.10	29.779
580.44	29.593
580.78	29.437
581.12	29.146
581.45	28.947
581.79	28.792
582.13	28.582
582.47	28.394
582.81	28.209
583.15	28.059
583.49	27.901
583.83	27.715
584.16	27.571
584.50	27.370
584.84	27.269
585.18	27.111
585.52	26.962
585.86	26.822
586.19	26.595
586.53	26.409
586.87	26.325
587.21	26.097
587.55	25.989
587.88	25.782
588.22	25.682
588.56	25.470
588.90	25.292
589.24	25.101
589.57	24.909
589.91	24.778
590.25	24.491
590.59	24.276
590.92	24.099
591.26	23.894
591.60	23.630
591.94	23.342
592.27	23.128
592.61	22.886
592.95	22.598
593.29	22.325
593.62	22.000
593.96	21.693
594.30	21.439
594.64	21.104
594.97	20.792
595.31	20.458
595.65	20.071
595.98	19.657
596.32	19.228
596.66	18.836
597.00	18.429
597.33	17.985
597.67	17.570
598.01	17.086
598.34	16.648
598.68	16.221
599.02	15.726
599.35	15.318
599.69	14.923
600.03	14.543
600.36	14.147
600.70	13.840
601.03	13.476
601.37	13.208
601.71	12.902
602.04	12.605
602.38	12.351
602.72	12.063
603.05	11.793
603.39	11.557
603.72	11.266
604.06	11.040
604.40	10.801
604.73	10.498
605.07	10.222
605.40	9.935
605.74	9.711
606.08	9.392
606.41	9.166
606.75	8.852
607.08	8.567
607.42	8.310
607.75	8.026
608.09	7.752
608.42	7.514
608.76	7.220
609.10	6.946
609.43	6.672
609.77	6.457
610.10	6.163
610.44	5.936
610.77	5.692
611.11	5.465
611.44	5.179
611.78	4.957
612.11	4.708
612.45	4.483
612.78	4.281
613.12	4.090
613.45	3.897
613.79	3.678
614.12	3.507
614.46	3.342
614.79	3.151
615.13	3.008
615.46	2.872
615.79	2.695
616.13	2.582
616.46	2.434
616.80	2.339
617.13	2.226
617.47	2.143
617.80	2.043
618.13	1.969
618.47	1.858
618.80	1.798
619.14	1.725
619.47	1.659
619.81	1.604
620.14	1.530
620.47	1.467
620.81	1.389
621.14	1.379
621.47	1.343
621.81	1.278
622.14	1.253
622.48	1.185
622.81	1.164
623.14	1.106
623.48	1.114
623.81	1.052
624.14	1.006
624.48	0.988
624.81	0.986
625.14	0.973
625.48	0.958
625.81	0.924
626.14	0.933
626.48	0.931
626.81	0.926
627.14	0.929
627.48	0.934
627.81	0.944
628.14	0.962
628.47	0.972
628.81	0.999
629.14	1.041
629.47	1.040
629.81	1.100
630.14	1.121
630.47	1.159
630.80	1.204
631.14	1.242
631.47	1.315
631.80	1.395
632.13	1.467
632.47	1.581
632.80	1.643
633.13	1.757
633.46	1.880
633.79	1.965
634.13	2.114
634.46	2.226
634.79	2.361
635.12	2.500
635.45	2.661
635.79	2.853
636.12	3.033
636.45	3.220
636.78	3.393
637.11	3.585
637.45	3.816
637.78	4.021
638.11	4.276
638.44	4.473
638.77	4.713
639.10	4.970
639.44	5.201
639.77	5.478
640.10	5.749
640.43	5.987
640.76	6.252
641.09	6.511
641.42	6.785
641.75	7.056
642.08	7.312
642.42	7.592
642.75	7.846
643.08	8.095
643.41	8.388
643.74	8.634
644.07	8.867
644.40	9.098
644.73	9.368
645.06	9.610
645.39	9.853
645.72	10.104
646.05	10.324
646.38	10.534
646.72	10.733
647.05	10.943
647.38	11.129
647.71	11.312
648.04	11.511
648.37	11.650
648.70	11.776
649.03	11.919
649.36	12.038
649.69	12.137
650.02	12.234
650.35	12.327
650.68	12.324
651.01	12.348
651.34	12.404
651.67	12.396
652.00	12.379
652.33	12.298
652.66	12.238
652.99	12.099
653.31	12.003
653.64	11.880
653.97	11.684
654.30	11.471
654.63	11.313
654.96	11.027
655.29	10.845
655.62	10.579
655.95	10.266
656.28	10.048
656.61	9.781
656.94	9.422
657.27	9.166
657.60	8.921
657.92	8.631
658.25	8.376
658.58	8.097
658.91	7.879
659.24	7.675
659.57	7.443
659.90	7.198
660.23	7.000
660.55	6.829
660.88	6.637
661.21	6.444
661.54	6.278
661.87	6.083
662.20	5.955
662.52	5.758
662.85	5.586
663.18	5.407
663.51	5.248
663.84	5.134
664.16	4.977
664.49	4.837
664.82	4.689
665.15	4.555
665.48	4.404
665.80	4.305
666.13	4.175
666.46	4.082
666.79	3.962
667.12	3.852
667.44	3.738
667.77	3.644
668.10	3.583
668.43	3.493
668.75	3.363
669.08	3.298
669.41	3.250
669.73	3.192
670.06	3.111
670.39	3.032
670.72	3.004
671.04	2.926
671.37	2.863
671.70	2.821
672.02	2.809
672.35	2.731
672.68	2.657
673.00	2.674
673.33	2.639
673.66	2.586
673.98	2.530
674.31	2.519
674.64	2.503
674.96	2.502
675.29	2.479
675.62	2.463
675.94	2.425
676.27	2.402
676.60	2.388
676.92	2.409
677.25	2.364
677.58	2.377
677.90	2.346
678.23	2.351
678.55	2.316
678.88	2.321
679.21	2.314
679.53	2.313
679.86	2.275
680.18	2.259
680.51	2.245
680.83	2.219
681.16	2.188
681.49	2.169
681.81	2.167
682.14	2.140
682.46	2.135
682.79	2.105
683.11	2.093
683.44	2.083
683.76	2.040
684.09	2.026
684.41	1.988
684.74	1.981
685.06	1.962
685.39	1.949
685.71	1.938
686.04	1.916
686.36	1.886
686.69	1.900
687.01	1.901
687.34	1.877
687.66	1.850
687.99	1.844
688.31	1.809
688.64	1.775
688.96	1.775
689.29	1.734
689.61	1.706
689.93	1.674
690.26	1.671
690.58	1.633
690.91	1.594
691.23	1.570
691.56	1.520
691.88	1.471
692.20	1.436
692.53	1.369
692.85	1.356
693.18	1.318
693.50	1.277
693.82	1.205
694.15	1.150
694.47	1.112
694.79	1.034
695.12	0.975
695.44	0.907
695.76	0.864
696.09	0.774
696.41	0.741
696.73	0.710
697.06	0.634
697.38	0.555
697.70	0.503
698.03	0.472
698.35	0.406
698.67	0.343
699.00	0.285
699.32	0.195
699.64	0.207
699.97	0.135
700.29	0.132
700.61	0.086
700.93	0.013
701.26	0.013
701.58	-0.047
701.90	-0.087
702.22	-0.120
702.55	-0.165
702.87	-0.154
703.19	-0.171
703.51	-0.204
703.84	-0.211
704.16	-0.233
704.48	-0.227
704.80	-0.291
705.13	-0.284
705.45	-0.289
705.77	-0.319
706.09	-0.324
706.41	-0.329
706.74	-0.328
707.06	-0.388
707.38	-0.388
707.70	-0.409
708.02	-0.389
708.34	-0.408
708.67	-0.402
708.99	-0.429
709.31	-0.460
709.63	-0.399
709.95	-0.382
710.27	-0.419
710.59	-0.446
710.92	-0.469
711.24	-0.484
711.56	-0.501
711.88	-0.497
712.20	-0.492
712.52	-0.458
712.84	-0.449
713.16	-0.508
713.48	-0.521
713.80	-0.491
714.12	-0.491
714.45	-0.506
714.77	-0.565
715.09	-0.512
715.41	-0.546
715.73	-0.563
716.05	-0.584
716.37	-0.587
716.69	-0.563
717.01	-0.577
717.33	-0.562
717.65	-0.566
717.97	-0.619
718.29	-0.623
718.61	-0.612
718.93	-0.652
719.25	-0.626
719.57	-0.633
719.89	-0.692
720.21	-0.677
720.53	-0.662
720.85	-0.687
721.17	-0.722
721.49	-0.730
721.81	-0.736
722.13	-0.736
722.45	-0.794
722.77	-0.743
723.09	-0.756
723.41	-0.824
723.72	-0.847
724.04	-0.779
724.36	-0.815
724.68	-0.912
725.00	-0.842
725.32	-0.856
725.64	-0.901
725.96	-0.929
726.28	-0.927
726.60	-0.965
726.91	-0.944
727.23	-1.040
727.55	-0.977
727.87	-0.947
728.19	-0.986
728.51	-1.072
728.83	-1.033
729.14	-0.991
729.46	-1.069
729.78	-1.045
730.10	-1.124
730.42	-1.145
730.74	-1.115
731.05	-1.147
731.37	-1.011
731.69	-1.118
732.01	-1.188
732.33	-1.179
732.64	-1.206
732.96	-1.288
733.28	-1.172
733.60	-1.168
733.92	-1.221
734.23	-1.173
734.55	-1.188
734.87	-1.215
735.19	-1.177
735.50	-1.256
735.82	-1.190
736.14	-1.170
736.45	-1.149
736.77	-1.221
737.09	-1.226
737.41	-1.208
737.72	-1.189
738.04	-1.185
738.36	-1.187
738.67	-1.246
738.99	-1.255
739.31	-1.184
739.63	-1.266
739.94	-1.251
740.26	-1.225
740.58	-1.135
740.89	-1.140
741.21	-1.225
741.52	-1.065
741.84	-1.159
742.16	-1.187
742.47	-1.188
742.79	-1.129
743.11	-1.099
743.42	-1.137
743.74	-1.069
744.05	-1.080
744.37	-1.073
744.69	-1.123
745.00	-0.993
745.32	-1.005
745.63	-1.048
745.95	-1.134
746.27	-1.058
746.58	-1.063
746.90	-1.027
747.21	-1.136
747.53	-0.949
747.84	-1.084
748.16	-1.075
748.47	-1.012
748.79	-1.013
749.10	-1.042
749.42	-1.063
749.74	-0.980
750.05	-1.010
750.37	-1.009
750.68	-0.937
751.00	-0.988
751.31	-0.959
751.62	-0.950
751.94	-0.976
752.25	-0.943
752.57	-0.909
752.88	-0.965
753.20	-0.958
753.51	-0.943
753.83	-0.882
754.14	-0.904
754.46	-0.872
754.77	-0.909
755.08	-1.001
755.40	-0.857
755.71	-0.891
756.03	-0.906
756.34	-0.835
756.66	-0.953
756.97	-0.865
757.28	-0.825
757.60	-0.918
757.91	-0.855
758.22	-0.859
758.54	-0.824
758.85	-0.857
759.17	-0.874
759.48	-0.861
759.79	-0.828
760.11	-0.825
760.42	-0.861
760.73	-0.815
761.05	-0.883
761.36	-0.834
761.67	-0.791
761.99	-0.814
762.30	-0.770
762.61	-0.811
762.92	-0.843
763.24	-0.837
763.55	-0.850
763.86	-0.837
764.18	-0.808
764.49	-0.774
764.80	-0.807
765.11	-0.821
765.43	-0.829
765.74	-0.826
766.05	-0.776
766.36	-0.813
766.68	-0.781
766.99	-0.788
767.30	-0.754
767.61	-0.832
767.93	-0.776
768.24	-0.705
768.55	-0.738
768.86	-0.900
769.17	-0.752
769.49	-0.854
769.80	-0.730
770.11	-0.746
770.42	-0.837
770.73	-0.827
771.04	-0.852
771.36	-0.792
771.67	-0.734
771.98	-0.847
772.29	-0.840
772.60	-0.819
772.91	-0.840
773.22	-0.842
773.54	-0.807
773.85	-0.769
774.16	-0.799
774.47	-0.778
774.78	-0.830
775.09	-0.828
775.40	-0.859
775.71	-0.876
776.02	-0.789
776.33	-0.862
776.64	-0.848
776.96	-0.836
777.27	-0.880
777.58	-0.859
777.89	-0.926
778.20	-0.820
778.51	-0.876
778.82	-0.859
779.13	-0.858
779.44	-0.844
779.75	-1.008
780.06	-0.904
780.37	-0.930
780.68	-0.912
780.99	-0.869
781.30	-0.944
781.61	-0.940
781.92	-0.983
782.23	-0.959
782.54	-0.949
782.85	-1.062
783.16	-0.974
783.47	-0.931
783.78	-0.978
784.08	-0.969
784.39	-1.016
784.70	-1.029
785.01	-1.085
785.32	-1.005
785.63	-1.060
785.94	-1.033
786.25	-1.130
786.56	-1.113
786.87	-1.125
787.18	-1.027
787.48	-1.090
787.79	-0.985
788.10	-1.140
788.41	-1.130
788.72	-1.154
789.03	-1.139
789.34	-1.186
789.64	-1.182
789.95	-1.159
790.26	-1.170
790.57	-1.130
790.88	-1.157
791.19	-1.159
791.49	-1.299
791.80	-1.336
792.11	-1.221
792.42	-1.340
792.73	-1.258
793.03	-1.261
793.34	-1.340
793.65	-1.400
793.96	-1.324
794.27	-1.323
794.57	-1.416
794.88	-1.423
795.19	-1.408
795.50	-1.464
795.80	-1.487
796.11	-1.461
796.42	-1.526
796.72	-1.491
797.03	-1.531
797.34	-1.620
797.65	-1.583
797.95	-1.503
798.26	-1.553
798.57	-1.393
798.87	-1.475
799.18	-1.654
799.49	-1.634
799.79	-1.542
800.10	-1.724
800.41	-1.677
800.71	-1.726
801.02	-1.750
801.33	-1.812
801.63	-1.717
801.94	-1.692
802.24	-1.775
802.55	-1.750
802.86	-1.653
803.16	-1.821
803.47	-1.934
803.77	-1.815
804.08	-1.965
804.39	-1.929
804.69	-1.879
805.00	-1.889
805.30	-1.823
805.61	-2.017
805.91	-2.004
806.22	-2.057
806.53	-1.919
806.83	-2.150
807.14	-2.177
807.44	-2.343
807.75	-2.108
808.05	-2.137
808.36	-2.127
808.66	-2.233
808.97	-2.386
809.27	-2.220
809.58	-2.334
809.88	-2.142
810.19	-2.392
810.49	-2.308
810.80	-2.543
811.10	-2.419
811.41	-2.345
811.71	-2.612
812.01	-2.261
812.32	-2.491
812.62	-2.557
812.93	-2.632
813.23	-2.641
813.54	-2.527
813.84	-2.521
814.14	-2.661
814.45	-2.877
814.75	-2.665
815.06	-2.879
815.36	-2.781
815.66	-2.831
815.97	-3.136
816.27	-3.029
816.58	-2.965
816.88	-3.003
817.18	-3.228
817.49	-3.096
817.79	-3.200
818.09	-3.097
818.40	-3.392
818.70	-3.358
819.00	-3.288
819.31	-3.330
819.61	-3.211
819.91	-3.314
820.21	-3.446
820.52	-3.455
820.82	-3.582
821.12	-3.225
821.43	-3.719
821.73	-3.753
822.03	-3.718
822.33	-3.885
822.64	-3.790
822.94	-3.895
823.24	-4.144
823.54	-3.995
823.85	-4.286
824.15	-4.066
824.45	-4.253
824.75	-4.263
825.05	-4.271
825.36	-4.287
825.66	-4.319
825.96	-4.360
826.26	-4.713
826.56	-4.426
826.87	-4.533
827.17	-4.319
827.47	-4.974
827.77	-5.047
828.07	-5.166
828.37	-4.917
828.67	-5.160
828.98	-5.312
829.28	-5.509
829.58	-5.278
829.88	-5.362
830.18	-5.798
830.48	-5.721
830.78	-5.690
831.08	-5.827
831.38	-5.483
831.69	-5.992
831.99	-6.660
832.29	-6.309
832.59	-6.343
832.89	-6.145
833.19	-7.111
833.49	-6.944
833.79	-7.160
834.09	-6.901
834.39	-7.241
834.69	-7.385
834.99	-6.788
835.29	-7.414
835.59	-7.900
835.89	-7.939
836.19	-8.182
836.49	-8.636
836.79	-8.746
837.09	-9.309
837.39	-9.896
837.69	-8.654
837.99	-10.210
838.29	-10.441
838.59	-10.078
838.89	-9.629
839.19	-9.871
839.49	-10.714
839.79	-10.248
840.09	-12.135
840.39	-11.347
840.68	-11.695
840.98	-11.615
841.28	-11.707
841.58	-12.545
841.88	-12.652
842.18	-12.866
842.48	-13.093
842.78	-13.464
843.08	-13.548
843.37	-13.376
843.67	-14.173
843.97	-14.878
844.27	-15.671
844.57	-15.895
844.87	-16.480
845.16	-16.522
845.46	-16.970
845.76	-17.597
846.06	-18.236
846.36	-18.705
846.66	-18.867
846.95	-21.755
847.25	-18.969
847.55	-19.946
847.85	-21.004
848.14	-21.971
848.44	-21.855
848.74	-22.961
849.04	-23.228
849.33	-22.551
849.63	-24.023
849.93	-24.619
850.23	-25.812
850.52	-26.435
850.82	-26.368
851.12	-28.959
851.42	-29.340
851.71	-28.744
852.01	-31.401
852.31	-32.683
852.60	-31.721
852.90	-32.176
853.20	-32.306
853.49	-33.345
853.79	-35.693
854.09	-34.050
854.38	-35.667
854.68	-36.405
854.98	-36.293
855.27	-34.152
855.57	-41.152
855.86	-38.860
856.16	-39.692
856.46	-38.871
856.75	-40.075
857.05	-41.229
857.34	-43.227
857.64	-42.530
857.94	-44.474
858.23	-43.329
858.53	-40.152
858.82	-44.626
859.12	-45.069
859.41	-39.837
859.71	-48.699
860.01	-46.111
860.30	-46.412
860.60	-48.455
860.89	-47.781
861.19	-43.706
861.48	-46.862
861.78	-40.645
862.07	-47.070
862.37	-50.987
862.66	-51.046
862.96	-47.624
863.25	-51.515
863.55	-41.457
863.84	-46.769
864.13	-47.996
864.43	-47.745
864.72	-47.482
865.02	-45.705
865.31	-50.591
865.61	-45.463
865.90	-47.099
866.19	-50.439
866.49	-47.340
866.78	-44.455
867.08	-46.217
867.37	-49.148
867.66	-48.324
867.96	-45.401
868.25	-43.836
868.55	-48.494
868.84	-50.770
869.13	-49.606
869.43	-47.663
869.72	-46.269
870.01	-50.930
870.31	-46.495
870.60	-51.558
870.89	-49.314
871.19	-45.602
871.48	-45.118
871.77	-47.180
872.07	-51.448
872.36	-48.935
872.65	-49.125
872.94	-53.445
873.24	-46.254
873.53	-48.468
873.82	-48.824
874.11	-48.421
874.41	-52.187
874.70	-55.165
>>>>>End Processed Spectral Data<<<<<
