SpectraSuite Data File
++++++++++++++++++++++++++++++++++++
Date: Tue Apr 28 19:00:15 BST 2015
User: mpfc3
Dark Spectrum Present: Yes
Reference Spectrum Present: Yes
Number of Sampled Component Spectra: 1
Spectrometers: USB2E3636
Integration Time (usec): 30000 (USB2E3636)
Spectra Averaged: 100 (USB2E3636)
Boxcar Smoothing: 0 (USB2E3636)
Correct for Electrical Dark: No (USB2E3636)
Strobe/Lamp Enabled: No (USB2E3636)
Correct for Detector Non-linearity: No (USB2E3636)
Correct for Stray Light: No (USB2E3636)
Number of Pixels in Processed Spectrum: 2048
>>>>>Begin Processed Spectral Data<<<<<
180.28	0.000
180.65	197.154
181.02	195.135
181.39	222.803
181.77	210.736
182.14	223.779
182.51	209.899
182.88	209.916
183.25	216.122
183.63	212.448
184.00	239.518
184.37	211.702
184.74	207.937
185.11	232.960
185.49	212.500
185.86	195.918
186.23	232.794
186.60	237.736
186.97	208.046
187.35	219.616
187.72	225.951
188.09	213.708
188.46	218.008
188.83	211.728
189.20	-1003.158
189.58	-53.757
189.95	-62.334
190.32	-60.863
190.69	-62.662
191.06	-59.592
191.43	-58.803
191.81	-65.919
192.18	-59.496
192.55	-56.069
192.92	-62.661
193.29	-60.100
193.66	-63.162
194.03	-59.210
194.41	-60.284
194.78	-62.643
195.15	-58.198
195.52	-53.484
195.89	-61.365
196.26	-56.872
196.63	-62.509
197.01	-54.124
197.38	-54.832
197.75	-55.563
198.12	-61.528
198.49	-59.031
198.86	-64.081
199.23	-59.944
199.60	-64.945
199.98	-56.347
200.35	-70.029
200.72	-58.492
201.09	-61.972
201.46	-65.015
201.83	-66.864
202.20	-56.133
202.57	-60.541
202.94	-60.498
203.31	-57.953
203.69	-56.651
204.06	-64.619
204.43	-57.891
204.80	-58.099
205.17	-61.229
205.54	-61.201
205.91	-58.672
206.28	-62.373
206.65	-64.978
207.02	-62.407
207.39	-68.569
207.76	-64.915
208.14	-60.201
208.51	-64.451
208.88	-68.870
209.25	-61.168
209.62	-65.845
209.99	-61.377
210.36	-67.973
210.73	-61.396
211.10	-65.170
211.47	-67.022
211.84	-71.977
212.21	-65.034
212.58	-66.820
212.95	-66.744
213.32	-60.274
213.69	-78.128
214.06	-66.407
214.43	-72.227
214.80	-63.622
215.17	-58.079
215.55	-65.088
215.92	-63.369
216.29	-68.691
216.66	-73.080
217.03	-65.211
217.40	-68.932
217.77	-69.607
218.14	-74.228
218.51	-73.832
218.88	-67.610
219.25	-64.446
219.62	-68.824
219.99	-72.536
220.36	-65.051
220.73	-71.302
221.10	-69.694
221.47	-74.385
221.84	-74.538
222.21	-76.362
222.58	-69.602
222.95	-74.627
223.32	-69.837
223.69	-77.778
224.06	-75.430
224.43	-73.435
224.80	-79.383
225.17	-77.571
225.54	-76.923
225.91	-67.231
226.27	-59.247
226.64	-78.330
227.01	-79.114
227.38	-73.550
227.75	-78.472
228.12	-79.234
228.49	-84.477
228.86	-75.174
229.23	-76.951
229.60	-82.293
229.97	-80.145
230.34	-76.413
230.71	-78.735
231.08	-86.275
231.45	-85.980
231.82	-73.405
232.19	-90.963
232.56	-81.543
232.93	-83.603
233.30	-72.632
233.66	-86.454
234.03	-80.882
234.40	-75.440
234.77	-77.046
235.14	-96.881
235.51	-79.272
235.88	-79.804
236.25	-86.390
236.62	-84.802
236.99	-91.278
237.36	-93.998
237.73	-78.857
238.09	-81.423
238.46	-95.738
238.83	-97.692
239.20	-87.074
239.57	-92.695
239.94	-90.672
240.31	-91.502
240.68	-82.681
241.05	-91.692
241.41	-79.155
241.78	-85.359
242.15	-90.339
242.52	-90.010
242.89	-91.156
243.26	-92.116
243.63	-82.411
244.00	-95.896
244.36	-95.602
244.73	-92.864
245.10	-91.503
245.47	-92.077
245.84	-94.623
246.21	-88.332
246.58	-80.762
246.94	-87.133
247.31	-85.445
247.68	-91.712
248.05	-85.223
248.42	-92.990
248.79	-93.619
249.15	-97.715
249.52	-88.287
249.89	-88.984
250.26	-82.353
250.63	-100.908
251.00	-92.274
251.36	-101.107
251.73	-88.374
252.10	-90.407
252.47	-84.727
252.84	-106.279
253.20	-100.573
253.57	-97.156
253.94	-99.336
254.31	-83.333
254.68	-84.513
255.05	-93.853
255.41	-97.856
255.78	-94.661
256.15	-100.782
256.52	-100.987
256.88	-97.685
257.25	-99.436
257.62	-108.487
257.99	-104.988
258.36	-126.242
258.72	-104.447
259.09	-91.658
259.46	-115.296
259.83	-107.041
260.19	-96.685
260.56	-100.112
260.93	-89.704
261.30	-107.376
261.67	-106.353
262.03	-98.934
262.40	-106.595
262.77	-99.767
263.14	-95.388
263.50	-97.401
263.87	-103.118
264.24	-94.696
264.61	-104.920
264.97	-105.338
265.34	-88.865
265.71	-100.701
266.07	-107.264
266.44	-94.863
266.81	-110.061
267.18	-105.984
267.54	-105.959
267.91	-92.205
268.28	-94.105
268.64	-106.098
269.01	-105.835
269.38	-105.790
269.75	-112.961
270.11	-108.199
270.48	-111.167
270.85	-96.556
271.21	-101.775
271.58	-111.111
271.95	-96.087
272.32	-106.538
272.68	-101.912
273.05	-100.456
273.42	-122.416
273.78	-116.540
274.15	-102.696
274.52	-99.553
274.88	-113.642
275.25	-95.963
275.62	-113.171
275.98	-103.647
276.35	-111.506
276.72	-104.458
277.08	-109.036
277.45	-112.327
277.82	-110.982
278.18	-112.485
278.55	-102.889
278.92	-101.860
279.28	-108.425
279.65	-98.504
280.01	-110.564
280.38	-106.601
280.75	-117.024
281.11	-105.089
281.48	-103.919
281.85	-102.590
282.21	-118.254
282.58	-102.837
282.95	-93.750
283.31	-114.214
283.68	-110.988
284.04	-92.609
284.41	-114.377
284.78	-97.685
285.14	-104.417
285.51	-88.526
285.87	-128.331
286.24	-103.616
286.61	-110.190
286.97	-103.089
287.34	-109.136
287.70	-97.995
288.07	-109.409
288.44	-97.514
288.80	-100.117
289.17	-101.308
289.53	-107.057
289.90	-107.160
290.26	-108.911
290.63	-112.222
291.00	-123.933
291.36	-108.550
291.73	-105.089
292.09	-109.394
292.46	-112.628
292.82	-93.591
293.19	-109.024
293.56	-97.993
293.92	-88.095
294.29	-98.624
294.65	-107.477
295.02	-98.523
295.38	-94.171
295.75	-92.832
296.11	-106.691
296.48	-97.826
296.84	-86.154
297.21	-94.138
297.57	-114.855
297.94	-106.497
298.30	-101.212
298.67	-104.296
299.04	-92.384
299.40	-100.114
299.77	-104.562
300.13	-87.896
300.50	-99.767
300.86	-112.651
301.23	-96.641
301.59	-91.193
301.96	-93.653
302.32	-98.009
302.69	-107.083
303.05	-98.307
303.42	-99.052
303.78	-102.052
304.14	-89.382
304.51	-89.554
304.87	-95.529
305.24	-99.317
305.60	-90.546
305.97	-95.912
306.33	-89.546
306.70	-84.035
307.06	-96.178
307.43	-82.371
307.79	-92.642
308.16	-87.687
308.52	-89.697
308.88	-80.303
309.25	-93.494
309.61	-87.835
309.98	-97.957
310.34	-97.238
310.71	-89.112
311.07	-86.239
311.44	-88.063
311.80	-91.318
312.16	-77.407
312.53	-86.880
312.89	-88.650
313.26	-85.743
313.62	-71.702
313.98	-79.480
314.35	-85.478
314.71	-75.970
315.08	-78.368
315.44	-69.244
315.80	-79.291
316.17	-76.404
316.53	-69.381
316.90	-78.292
317.26	-76.396
317.62	-78.859
317.99	-83.064
318.35	-77.502
318.72	-79.225
319.08	-77.397
319.44	-71.287
319.81	-70.053
320.17	-68.282
320.53	-64.812
320.90	-69.779
321.26	-72.058
321.62	-70.051
321.99	-71.582
322.35	-69.135
322.72	-72.452
323.08	-68.493
323.44	-73.387
323.81	-53.611
324.17	-73.171
324.53	-64.160
324.90	-64.446
325.26	-63.636
325.62	-65.057
325.99	-60.426
326.35	-58.509
326.71	-61.822
327.08	-55.540
327.44	-53.243
327.80	-56.959
328.16	-49.967
328.53	-59.986
328.89	-62.491
329.25	-57.725
329.62	-44.822
329.98	-41.396
330.34	-44.920
330.71	-50.856
331.07	-59.819
331.43	-51.106
331.79	-42.650
332.16	-44.180
332.52	-48.803
332.88	-43.908
333.24	-44.299
333.61	-40.117
333.97	-41.093
334.33	-44.074
334.70	-40.317
335.06	-40.414
335.42	-41.326
335.78	-37.985
336.15	-40.100
336.51	-37.567
336.87	-40.038
337.23	-38.454
337.60	-38.437
337.96	-37.857
338.32	-37.255
338.68	-31.324
339.04	-37.418
339.41	-34.835
339.77	-32.090
340.13	-32.670
340.49	-29.367
340.86	-32.953
341.22	-31.681
341.58	-30.171
341.94	-30.403
342.30	-30.344
342.67	-27.307
343.03	-29.048
343.39	-29.123
343.75	-26.964
344.11	-29.698
344.48	-28.216
344.84	-27.977
345.20	-29.388
345.56	-26.281
345.92	-25.495
346.28	-24.767
346.65	-23.766
347.01	-24.411
347.37	-27.304
347.73	-26.231
348.09	-23.815
348.45	-23.392
348.82	-22.122
349.18	-23.197
349.54	-23.256
349.90	-23.602
350.26	-20.925
350.62	-19.381
350.98	-19.862
351.35	-20.112
351.71	-20.930
352.07	-17.226
352.43	-20.538
352.79	-18.452
353.15	-19.398
353.51	-19.045
353.87	-17.501
354.24	-16.934
354.60	-18.650
354.96	-17.986
355.32	-16.091
355.68	-18.574
356.04	-16.888
356.40	-15.530
356.76	-17.350
357.12	-14.860
357.48	-15.668
357.85	-17.045
358.21	-14.916
358.57	-13.616
358.93	-15.250
359.29	-15.134
359.65	-15.639
360.01	-15.376
360.37	-13.220
360.73	-14.507
361.09	-14.874
361.45	-12.821
361.81	-13.508
362.17	-13.144
362.53	-13.016
362.89	-12.741
363.25	-12.954
363.62	-12.645
363.98	-11.854
364.34	-11.871
364.70	-12.845
365.06	-11.369
365.42	-11.358
365.78	-10.536
366.14	-11.488
366.50	-10.137
366.86	-10.422
367.22	-10.873
367.58	-10.165
367.94	-10.800
368.30	-10.196
368.66	-9.299
369.02	-9.833
369.38	-9.052
369.74	-10.081
370.10	-9.142
370.46	-9.941
370.82	-9.677
371.18	-8.734
371.54	-8.764
371.90	-9.480
372.26	-7.922
372.62	-7.559
372.98	-8.792
373.33	-8.422
373.69	-7.966
374.05	-8.007
374.41	-8.348
374.77	-7.856
375.13	-7.363
375.49	-6.329
375.85	-7.113
376.21	-7.194
376.57	-7.716
376.93	-6.827
377.29	-6.730
377.65	-6.042
378.01	-6.387
378.37	-6.102
378.73	-6.176
379.08	-6.402
379.44	-6.506
379.80	-5.637
380.16	-6.193
380.52	-5.923
380.88	-5.609
381.24	-5.442
381.60	-5.250
381.96	-4.761
382.32	-4.416
382.67	-4.272
383.03	-4.345
383.39	-4.101
383.75	-4.765
384.11	-3.834
384.47	-3.966
384.83	-4.238
385.19	-3.886
385.54	-3.667
385.90	-3.332
386.26	-3.497
386.62	-3.225
386.98	-2.941
387.34	-2.688
387.70	-2.604
388.05	-2.490
388.41	-2.599
388.77	-2.401
389.13	-1.295
389.49	-1.800
389.85	-1.399
390.20	-1.396
390.56	-0.894
390.92	-1.003
391.28	-1.098
391.64	-1.014
391.99	-0.686
392.35	-1.094
392.71	-0.301
393.07	-0.218
393.43	-0.096
393.78	0.442
394.14	0.136
394.50	-0.012
394.86	0.623
395.22	0.410
395.57	0.759
395.93	0.769
396.29	1.022
396.65	1.341
397.00	1.497
397.36	1.335
397.72	1.138
398.08	2.254
398.43	1.838
398.79	2.213
399.15	2.258
399.51	2.763
399.86	2.744
400.22	2.775
400.58	2.680
400.94	3.256
401.29	3.410
401.65	3.681
402.01	3.898
402.37	3.881
402.72	3.827
403.08	3.934
403.44	4.111
403.79	4.376
404.15	4.310
404.51	4.662
404.86	4.603
405.22	5.111
405.58	5.307
405.94	5.203
406.29	5.411
406.65	5.764
407.01	5.270
407.36	5.650
407.72	6.107
408.08	5.810
408.43	6.124
408.79	6.208
409.15	6.466
409.50	6.353
409.86	6.390
410.22	6.836
410.57	6.896
410.93	7.072
411.29	7.417
411.64	7.475
412.00	7.845
412.35	7.877
412.71	7.829
413.07	7.984
413.42	8.188
413.78	8.313
414.14	8.519
414.49	8.487
414.85	8.750
415.20	9.408
415.56	9.233
415.92	9.259
416.27	9.285
416.63	9.808
416.98	9.606
417.34	9.934
417.70	9.963
418.05	9.948
418.41	9.850
418.76	10.402
419.12	10.411
419.47	10.691
419.83	10.780
420.19	10.987
420.54	11.108
420.90	11.153
421.25	11.449
421.61	11.458
421.96	11.357
422.32	11.822
422.67	11.772
423.03	12.077
423.39	12.307
423.74	12.396
424.10	12.357
424.45	12.719
424.81	12.642
425.16	12.751
425.52	13.121
425.87	13.090
426.23	13.108
426.58	13.212
426.94	13.455
427.29	13.788
427.65	13.733
428.00	13.851
428.36	14.035
428.71	14.012
429.07	14.365
429.42	14.474
429.78	14.222
430.13	14.574
430.49	14.701
430.84	14.789
431.19	14.974
431.55	14.956
431.90	15.350
432.26	15.171
432.61	15.549
432.97	15.388
433.32	15.945
433.68	15.864
434.03	15.964
434.39	15.958
434.74	16.120
435.09	16.112
435.45	16.390
435.80	16.551
436.16	16.649
436.51	16.702
436.86	16.707
437.22	17.014
437.57	16.998
437.93	17.084
438.28	17.237
438.63	17.339
438.99	17.454
439.34	17.416
439.70	17.715
440.05	17.870
440.40	18.112
440.76	17.950
441.11	18.274
441.47	18.366
441.82	18.368
442.17	18.355
442.53	18.596
442.88	18.614
443.23	18.767
443.59	18.904
443.94	18.982
444.29	19.053
444.65	19.277
445.00	19.207
445.35	19.469
445.71	19.589
446.06	19.679
446.41	19.693
446.77	19.744
447.12	19.920
447.47	19.974
447.83	20.199
448.18	20.087
448.53	20.213
448.89	20.422
449.24	20.462
449.59	20.665
449.94	20.620
450.30	20.837
450.65	20.786
451.00	21.110
451.36	21.229
451.71	21.105
452.06	21.249
452.41	21.438
452.77	21.420
453.12	21.636
453.47	21.838
453.82	21.711
454.18	21.933
454.53	22.119
454.88	22.137
455.23	22.179
455.59	22.333
455.94	22.366
456.29	22.643
456.64	22.575
457.00	22.745
457.35	22.779
457.70	22.880
458.05	22.987
458.40	23.015
458.76	23.354
459.11	23.429
459.46	23.383
459.81	23.445
460.16	23.649
460.52	23.742
460.87	23.785
461.22	23.924
461.57	23.983
461.92	24.026
462.28	24.272
462.63	24.252
462.98	24.359
463.33	24.555
463.68	24.607
464.03	24.672
464.38	24.651
464.74	24.854
465.09	25.017
465.44	25.000
465.79	25.169
466.14	25.177
466.49	25.285
466.84	25.396
467.20	25.465
467.55	25.638
467.90	25.570
468.25	25.706
468.60	25.704
468.95	26.042
469.30	25.878
469.65	26.006
470.00	26.060
470.36	26.245
470.71	26.158
471.06	26.284
471.41	26.338
471.76	26.383
472.11	26.398
472.46	26.516
472.81	26.461
473.16	26.622
473.51	26.660
473.86	26.681
474.21	26.800
474.56	26.807
474.91	26.763
475.26	26.824
475.62	26.924
475.97	26.965
476.32	26.998
476.67	26.956
477.02	26.943
477.37	27.058
477.72	27.031
478.07	26.980
478.42	27.076
478.77	27.040
479.12	26.957
479.47	27.058
479.82	27.060
480.17	27.129
480.52	27.058
480.87	27.078
481.22	27.167
481.57	27.105
481.92	27.091
482.27	27.048
482.62	27.083
482.97	27.126
483.32	27.094
483.67	27.122
484.02	27.202
484.36	27.133
484.71	27.178
485.06	27.298
485.41	27.226
485.76	27.331
486.11	27.324
486.46	27.370
486.81	27.431
487.16	27.381
487.51	27.509
487.86	27.614
488.21	27.612
488.56	27.655
488.91	27.699
489.25	27.872
489.60	27.875
489.95	27.877
490.30	27.960
490.65	27.951
491.00	28.100
491.35	28.223
491.70	28.215
492.05	28.290
492.39	28.419
492.74	28.426
493.09	28.572
493.44	28.661
493.79	28.740
494.14	28.825
494.49	28.857
494.83	29.059
495.18	29.020
495.53	29.110
495.88	29.194
496.23	29.371
496.58	29.357
496.92	29.521
497.27	29.558
497.62	29.670
497.97	29.698
498.32	29.822
498.67	29.865
499.01	29.923
499.36	30.012
499.71	30.059
500.06	30.203
500.41	30.262
500.75	30.279
501.10	30.389
501.45	30.446
501.80	30.520
502.14	30.552
502.49	30.584
502.84	30.615
503.19	30.752
503.53	30.832
503.88	30.828
504.23	30.977
504.58	30.900
504.92	30.999
505.27	31.043
505.62	31.000
505.97	31.112
506.31	31.137
506.66	31.182
507.01	31.190
507.36	31.193
507.70	31.215
508.05	31.197
508.40	31.180
508.74	31.158
509.09	31.138
509.44	31.098
509.79	31.111
510.13	31.067
510.48	31.063
510.83	31.030
511.17	31.008
511.52	31.048
511.87	30.983
512.21	30.938
512.56	30.993
512.91	30.976
513.25	31.101
513.60	30.989
513.95	31.121
514.29	31.101
514.64	31.149
514.98	31.228
515.33	31.238
515.68	31.334
516.02	31.325
516.37	31.358
516.72	31.332
517.06	31.437
517.41	31.441
517.75	31.476
518.10	31.496
518.45	31.557
518.79	31.526
519.14	31.603
519.48	31.620
519.83	31.647
520.18	31.715
520.52	31.728
520.87	31.668
521.21	31.678
521.56	31.768
521.90	31.735
522.25	31.685
522.60	31.722
522.94	31.744
523.29	31.778
523.63	31.717
523.98	31.692
524.32	31.738
524.67	31.641
525.01	31.671
525.36	31.586
525.70	31.586
526.05	31.542
526.39	31.482
526.74	31.467
527.08	31.405
527.43	31.393
527.77	31.279
528.12	31.202
528.46	31.146
528.81	31.010
529.15	31.018
529.50	30.865
529.84	30.773
530.19	30.627
530.53	30.618
530.88	30.466
531.22	30.294
531.57	30.274
531.91	30.016
532.26	29.909
532.60	29.873
532.94	29.627
533.29	29.468
533.63	29.287
533.98	29.091
534.32	29.017
534.67	28.757
535.01	28.489
535.35	28.293
535.70	28.104
536.04	27.899
536.39	27.693
536.73	27.515
537.07	27.281
537.42	27.068
537.76	26.865
538.11	26.578
538.45	26.373
538.79	26.149
539.14	25.913
539.48	25.748
539.82	25.561
540.17	25.377
540.51	25.158
540.85	24.980
541.20	24.739
541.54	24.596
541.89	24.423
542.23	24.283
542.57	24.200
542.92	24.034
543.26	23.949
543.60	23.901
543.94	23.788
544.29	23.724
544.63	23.572
544.97	23.589
545.32	23.588
545.66	23.504
546.00	23.515
546.35	23.519
546.69	23.503
547.03	23.481
547.37	23.496
547.72	23.573
548.06	23.562
548.40	23.595
548.75	23.750
549.09	23.715
549.43	23.771
549.77	23.812
550.12	23.962
550.46	23.974
550.80	24.185
551.14	24.192
551.49	24.279
551.83	24.483
552.17	24.552
552.51	24.711
552.85	24.842
553.20	25.014
553.54	25.176
553.88	25.345
554.22	25.553
554.56	25.742
554.91	25.981
555.25	26.217
555.59	26.438
555.93	26.701
556.27	26.917
556.62	27.126
556.96	27.426
557.30	27.638
557.64	27.855
557.98	28.142
558.32	28.384
558.67	28.584
559.01	28.917
559.35	29.120
559.69	29.340
560.03	29.636
560.37	29.845
560.71	30.130
561.05	30.328
561.40	30.538
561.74	30.743
562.08	30.974
562.42	31.185
562.76	31.427
563.10	31.542
563.44	31.790
563.78	31.944
564.12	32.137
564.46	32.296
564.81	32.432
565.15	32.544
565.49	32.735
565.83	32.849
566.17	32.911
566.51	33.019
566.85	33.112
567.19	33.118
567.53	33.300
567.87	33.390
568.21	33.393
568.55	33.425
568.89	33.409
569.23	33.518
569.57	33.526
569.91	33.540
570.25	33.525
570.59	33.456
570.93	33.461
571.27	33.400
571.61	33.420
571.95	33.305
572.29	33.297
572.63	33.264
572.97	33.182
573.31	33.104
573.65	33.038
573.99	32.963
574.33	32.845
574.67	32.750
575.01	32.587
575.35	32.472
575.69	32.418
576.03	32.299
576.37	32.147
576.71	32.052
577.05	31.897
577.39	31.698
577.73	31.564
578.06	31.476
578.40	31.191
578.74	31.131
579.08	30.861
579.42	30.768
579.76	30.524
580.10	30.345
580.44	30.150
580.78	29.951
581.12	29.684
581.45	29.568
581.79	29.327
582.13	29.125
582.47	28.979
582.81	28.725
583.15	28.620
583.49	28.425
583.83	28.266
584.16	28.129
584.50	27.952
584.84	27.777
585.18	27.636
585.52	27.410
585.86	27.309
586.19	27.084
586.53	26.949
586.87	26.852
587.21	26.613
587.55	26.480
587.88	26.357
588.22	26.170
588.56	25.986
588.90	25.733
589.24	25.586
589.57	25.342
589.91	25.239
590.25	24.975
590.59	24.720
590.92	24.574
591.26	24.339
591.60	24.062
591.94	23.846
592.27	23.597
592.61	23.357
592.95	23.035
593.29	22.754
593.62	22.480
593.96	22.174
594.30	21.841
594.64	21.573
594.97	21.180
595.31	20.792
595.65	20.423
595.98	20.030
596.32	19.566
596.66	19.250
597.00	18.812
597.33	18.328
597.67	17.880
598.01	17.397
598.34	16.916
598.68	16.527
599.02	16.061
599.35	15.585
599.69	15.215
600.03	14.810
600.36	14.435
600.70	14.108
601.03	13.718
601.37	13.440
601.71	13.192
602.04	12.798
602.38	12.585
602.72	12.288
603.05	12.026
603.39	11.775
603.72	11.509
604.06	11.242
604.40	10.980
604.73	10.682
605.07	10.419
605.40	10.126
605.74	9.854
606.08	9.576
606.41	9.354
606.75	9.075
607.08	8.713
607.42	8.485
607.75	8.188
608.09	7.913
608.42	7.631
608.76	7.335
609.10	7.085
609.43	6.814
609.77	6.524
610.10	6.293
610.44	6.071
610.77	5.783
611.11	5.555
611.44	5.278
611.78	5.047
612.11	4.809
612.45	4.613
612.78	4.361
613.12	4.154
613.45	3.966
613.79	3.766
614.12	3.593
614.46	3.416
614.79	3.226
615.13	3.061
615.46	2.932
615.79	2.761
616.13	2.614
616.46	2.476
616.80	2.369
617.13	2.255
617.47	2.180
617.80	2.084
618.13	2.021
618.47	1.913
618.80	1.830
619.14	1.724
619.47	1.701
619.81	1.652
620.14	1.557
620.47	1.491
620.81	1.449
621.14	1.385
621.47	1.382
621.81	1.324
622.14	1.263
622.48	1.193
622.81	1.163
623.14	1.144
623.48	1.102
623.81	1.081
624.14	1.043
624.48	1.045
624.81	1.002
625.14	0.995
625.48	0.990
625.81	0.959
626.14	0.950
626.48	0.953
626.81	0.962
627.14	0.934
627.48	0.953
627.81	0.976
628.14	0.987
628.47	1.008
628.81	1.016
629.14	1.046
629.47	1.069
629.81	1.117
630.14	1.146
630.47	1.177
630.80	1.228
631.14	1.286
631.47	1.375
631.80	1.432
632.13	1.540
632.47	1.606
632.80	1.696
633.13	1.800
633.46	1.876
633.79	2.022
634.13	2.143
634.46	2.266
634.79	2.425
635.12	2.543
635.45	2.709
635.79	2.922
636.12	3.084
636.45	3.278
636.78	3.429
637.11	3.650
637.45	3.848
637.78	4.096
638.11	4.343
638.44	4.544
638.77	4.784
639.10	5.031
639.44	5.287
639.77	5.599
640.10	5.866
640.43	6.126
640.76	6.360
641.09	6.645
641.42	6.930
641.75	7.173
642.08	7.454
642.42	7.733
642.75	7.957
643.08	8.235
643.41	8.543
643.74	8.754
644.07	9.022
644.40	9.297
644.73	9.502
645.06	9.809
645.39	10.012
645.72	10.306
646.05	10.493
646.38	10.736
646.72	10.934
647.05	11.112
647.38	11.348
647.71	11.507
648.04	11.733
648.37	11.868
648.70	12.043
649.03	12.127
649.36	12.288
649.69	12.361
650.02	12.475
650.35	12.532
650.68	12.575
651.01	12.604
651.34	12.639
651.67	12.654
652.00	12.600
652.33	12.498
652.66	12.456
652.99	12.328
653.31	12.240
653.64	12.052
653.97	11.900
654.30	11.710
654.63	11.514
654.96	11.264
655.29	11.001
655.62	10.769
655.95	10.488
656.28	10.229
656.61	9.960
656.94	9.637
657.27	9.352
657.60	9.073
657.92	8.808
658.25	8.562
658.58	8.273
658.91	8.027
659.24	7.830
659.57	7.584
659.90	7.373
660.23	7.137
660.55	6.977
660.88	6.772
661.21	6.566
661.54	6.344
661.87	6.209
662.20	6.025
662.52	5.859
662.85	5.687
663.18	5.506
663.51	5.385
663.84	5.229
664.16	5.059
664.49	4.945
664.82	4.793
665.15	4.675
665.48	4.508
665.80	4.426
666.13	4.261
666.46	4.166
666.79	4.051
667.12	3.939
667.44	3.817
667.77	3.729
668.10	3.659
668.43	3.561
668.75	3.480
669.08	3.399
669.41	3.311
669.73	3.248
670.06	3.165
670.39	3.099
670.72	3.093
671.04	2.985
671.37	2.931
671.70	2.885
672.02	2.843
672.35	2.796
672.68	2.740
673.00	2.727
673.33	2.682
673.66	2.632
673.98	2.598
674.31	2.601
674.64	2.564
674.96	2.540
675.29	2.534
675.62	2.540
675.94	2.473
676.27	2.473
676.60	2.428
676.92	2.478
677.25	2.430
677.58	2.415
677.90	2.423
678.23	2.405
678.55	2.376
678.88	2.372
679.21	2.336
679.53	2.351
679.86	2.345
680.18	2.319
680.51	2.318
680.83	2.264
681.16	2.262
681.49	2.237
681.81	2.181
682.14	2.190
682.46	2.189
682.79	2.165
683.11	2.146
683.44	2.115
683.76	2.099
684.09	2.066
684.41	2.058
684.74	2.013
685.06	2.020
685.39	2.012
685.71	1.988
686.04	1.993
686.36	1.934
686.69	1.929
687.01	1.933
687.34	1.922
687.66	1.903
687.99	1.868
688.31	1.861
688.64	1.835
688.96	1.806
689.29	1.777
689.61	1.752
689.93	1.705
690.26	1.708
690.58	1.694
690.91	1.619
691.23	1.628
691.56	1.543
691.88	1.528
692.20	1.494
692.53	1.411
692.85	1.397
693.18	1.345
693.50	1.295
693.82	1.230
694.15	1.163
694.47	1.138
694.79	1.079
695.12	1.009
695.44	0.930
695.76	0.886
696.09	0.836
696.41	0.751
696.73	0.741
697.06	0.646
697.38	0.578
697.70	0.548
698.03	0.476
698.35	0.399
698.67	0.388
699.00	0.302
699.32	0.230
699.64	0.245
699.97	0.160
700.29	0.104
700.61	0.059
700.93	0.005
701.26	0.004
701.58	-0.024
701.90	-0.065
702.22	-0.120
702.55	-0.147
702.87	-0.148
703.19	-0.153
703.51	-0.200
703.84	-0.207
704.16	-0.244
704.48	-0.219
704.80	-0.262
705.13	-0.262
705.45	-0.276
705.77	-0.258
706.09	-0.311
706.41	-0.321
706.74	-0.315
707.06	-0.390
707.38	-0.351
707.70	-0.391
708.02	-0.373
708.34	-0.395
708.67	-0.401
708.99	-0.443
709.31	-0.452
709.63	-0.405
709.95	-0.407
710.27	-0.408
710.59	-0.464
710.92	-0.448
711.24	-0.457
711.56	-0.446
711.88	-0.483
712.20	-0.464
712.52	-0.434
712.84	-0.404
713.16	-0.469
713.48	-0.506
713.80	-0.491
714.12	-0.488
714.45	-0.523
714.77	-0.501
715.09	-0.484
715.41	-0.506
715.73	-0.542
716.05	-0.603
716.37	-0.586
716.69	-0.581
717.01	-0.579
717.33	-0.569
717.65	-0.563
717.97	-0.615
718.29	-0.618
718.61	-0.631
718.93	-0.599
719.25	-0.664
719.57	-0.572
719.89	-0.655
720.21	-0.676
720.53	-0.685
720.85	-0.694
721.17	-0.649
721.49	-0.718
721.81	-0.754
722.13	-0.766
722.45	-0.747
722.77	-0.717
723.09	-0.736
723.41	-0.797
723.72	-0.840
724.04	-0.810
724.36	-0.807
724.68	-0.829
725.00	-0.857
725.32	-0.850
725.64	-0.837
725.96	-0.911
726.28	-0.919
726.60	-0.898
726.91	-0.960
727.23	-0.988
727.55	-0.917
727.87	-0.939
728.19	-0.958
728.51	-0.968
728.83	-0.986
729.14	-1.003
729.46	-1.091
729.78	-1.045
730.10	-1.122
730.42	-1.137
730.74	-1.128
731.05	-1.105
731.37	-1.009
731.69	-1.025
732.01	-1.209
732.33	-1.236
732.64	-1.193
732.96	-1.195
733.28	-1.096
733.60	-1.203
733.92	-1.167
734.23	-1.175
734.55	-1.211
734.87	-1.163
735.19	-1.180
735.50	-1.217
735.82	-1.181
736.14	-1.192
736.45	-1.263
736.77	-1.165
737.09	-1.133
737.41	-1.244
737.72	-1.193
738.04	-1.181
738.36	-1.229
738.67	-1.256
738.99	-1.191
739.31	-1.192
739.63	-1.247
739.94	-1.237
740.26	-1.167
740.58	-1.079
740.89	-1.106
741.21	-1.199
741.52	-1.164
741.84	-1.066
742.16	-1.137
742.47	-1.159
742.79	-1.201
743.11	-1.094
743.42	-1.121
743.74	-0.981
744.05	-1.135
744.37	-1.092
744.69	-1.040
745.00	-1.066
745.32	-0.966
745.63	-0.990
745.95	-1.160
746.27	-1.024
746.58	-1.049
746.90	-0.997
747.21	-1.051
747.53	-0.953
747.84	-1.069
748.16	-0.972
748.47	-0.997
748.79	-1.000
749.10	-1.010
749.42	-0.977
749.74	-0.919
750.05	-1.042
750.37	-1.010
750.68	-1.053
751.00	-0.983
751.31	-0.924
751.62	-0.910
751.94	-0.939
752.25	-0.932
752.57	-0.849
752.88	-0.918
753.20	-0.989
753.51	-0.957
753.83	-0.878
754.14	-0.877
754.46	-0.850
754.77	-0.887
755.08	-0.955
755.40	-0.885
755.71	-0.936
756.03	-0.850
756.34	-0.897
756.66	-0.919
756.97	-0.866
757.28	-0.802
757.60	-0.853
757.91	-0.841
758.22	-0.891
758.54	-0.855
758.85	-0.855
759.17	-0.848
759.48	-0.899
759.79	-0.815
760.11	-0.851
760.42	-0.834
760.73	-0.838
761.05	-0.860
761.36	-0.796
761.67	-0.806
761.99	-0.809
762.30	-0.814
762.61	-0.815
762.92	-0.855
763.24	-0.814
763.55	-0.803
763.86	-0.815
764.18	-0.794
764.49	-0.761
764.80	-0.784
765.11	-0.793
765.43	-0.800
765.74	-0.822
766.05	-0.789
766.36	-0.713
766.68	-0.735
766.99	-0.776
767.30	-0.754
767.61	-0.828
767.93	-0.814
768.24	-0.816
768.55	-0.760
768.86	-0.865
769.17	-0.766
769.49	-0.780
769.80	-0.743
770.11	-0.724
770.42	-0.782
770.73	-0.795
771.04	-0.768
771.36	-0.824
771.67	-0.726
771.98	-0.830
772.29	-0.806
772.60	-0.811
772.91	-0.835
773.22	-0.803
773.54	-0.801
773.85	-0.779
774.16	-0.783
774.47	-0.791
774.78	-0.827
775.09	-0.768
775.40	-0.856
775.71	-0.854
776.02	-0.822
776.33	-0.840
776.64	-0.832
776.96	-0.861
777.27	-0.845
777.58	-0.836
777.89	-0.883
778.20	-0.857
778.51	-0.875
778.82	-0.813
779.13	-0.875
779.44	-0.898
779.75	-0.940
780.06	-0.903
780.37	-0.920
780.68	-0.957
780.99	-0.868
781.30	-0.987
781.61	-0.948
781.92	-0.903
782.23	-0.919
782.54	-0.955
782.85	-1.016
783.16	-0.968
783.47	-0.973
783.78	-0.942
784.08	-1.017
784.39	-1.019
784.70	-0.992
785.01	-0.961
785.32	-1.032
785.63	-1.099
785.94	-1.016
786.25	-1.069
786.56	-1.054
786.87	-1.073
787.18	-1.070
787.48	-1.119
787.79	-1.072
788.10	-1.098
788.41	-1.198
788.72	-1.048
789.03	-1.093
789.34	-1.148
789.64	-1.186
789.95	-1.106
790.26	-1.165
790.57	-1.179
790.88	-1.204
791.19	-1.276
791.49	-1.312
791.80	-1.261
792.11	-1.269
792.42	-1.266
792.73	-1.219
793.03	-1.360
793.34	-1.229
793.65	-1.383
793.96	-1.330
794.27	-1.302
794.57	-1.401
794.88	-1.386
795.19	-1.407
795.50	-1.368
795.80	-1.457
796.11	-1.500
796.42	-1.387
796.72	-1.509
797.03	-1.514
797.34	-1.497
797.65	-1.593
797.95	-1.467
798.26	-1.625
798.57	-1.564
798.87	-1.573
799.18	-1.635
799.49	-1.638
799.79	-1.614
800.10	-1.674
800.41	-1.668
800.71	-1.833
801.02	-1.656
801.33	-1.736
801.63	-1.719
801.94	-1.697
802.24	-1.662
802.55	-1.763
802.86	-1.660
803.16	-1.949
803.47	-1.875
803.77	-1.866
804.08	-2.021
804.39	-2.054
804.69	-1.910
805.00	-1.945
805.30	-1.894
805.61	-2.078
805.91	-2.040
806.22	-2.095
806.53	-1.958
806.83	-2.229
807.14	-2.210
807.44	-2.193
807.75	-1.968
808.05	-2.205
808.36	-2.143
808.66	-2.091
808.97	-2.133
809.27	-2.159
809.58	-2.341
809.88	-2.075
810.19	-2.317
810.49	-2.251
810.80	-2.471
811.10	-2.206
811.41	-2.332
811.71	-2.458
812.01	-2.302
812.32	-2.255
812.62	-2.578
812.93	-2.488
813.23	-2.553
813.54	-2.607
813.84	-2.565
814.14	-2.726
814.45	-2.618
814.75	-2.613
815.06	-2.722
815.36	-2.746
815.66	-2.819
815.97	-2.899
816.27	-2.953
816.58	-2.743
816.88	-2.897
817.18	-3.158
817.49	-3.227
817.79	-2.926
818.09	-3.045
818.40	-3.222
818.70	-3.215
819.00	-3.146
819.31	-3.259
819.61	-3.273
819.91	-3.203
820.21	-3.390
820.52	-3.411
820.82	-3.857
821.12	-3.177
821.43	-3.726
821.73	-3.643
822.03	-3.669
822.33	-3.772
822.64	-3.614
822.94	-3.804
823.24	-3.768
823.54	-3.868
823.85	-3.913
824.15	-4.129
824.45	-3.882
824.75	-4.110
825.05	-4.210
825.36	-4.301
825.66	-4.237
825.96	-4.129
826.26	-4.778
826.56	-4.308
826.87	-4.648
827.17	-4.648
827.47	-4.666
827.77	-5.036
828.07	-5.063
828.37	-4.969
828.67	-4.830
828.98	-5.139
829.28	-5.344
829.58	-5.155
829.88	-5.430
830.18	-5.763
830.48	-5.815
830.78	-5.667
831.08	-5.760
831.38	-5.489
831.69	-6.055
831.99	-6.537
832.29	-5.897
832.59	-6.604
832.89	-6.546
833.19	-7.194
833.49	-6.674
833.79	-6.948
834.09	-6.864
834.39	-7.431
834.69	-7.761
834.99	-7.245
835.29	-7.827
835.59	-7.999
835.89	-8.378
836.19	-7.822
836.49	-8.177
836.79	-8.755
837.09	-9.039
837.39	-9.745
837.69	-8.826
837.99	-9.451
838.29	-9.984
838.59	-9.893
838.89	-9.598
839.19	-9.989
839.49	-10.206
839.79	-9.924
840.09	-11.667
840.39	-11.076
840.68	-11.974
840.98	-11.516
841.28	-12.377
841.58	-12.519
841.88	-12.823
842.18	-12.596
842.48	-12.569
842.78	-13.170
843.08	-13.811
843.37	-13.289
843.67	-14.688
843.97	-15.682
844.27	-15.435
844.57	-16.517
844.87	-16.497
845.16	-16.437
845.46	-16.725
845.76	-18.014
846.06	-19.480
846.36	-19.495
846.66	-18.331
846.95	-20.008
847.25	-18.396
847.55	-19.633
847.85	-22.249
848.14	-19.845
848.44	-21.186
848.74	-21.991
849.04	-23.322
849.33	-22.142
849.63	-24.328
849.93	-25.249
850.23	-25.306
850.52	-24.172
850.82	-27.396
851.12	-28.903
851.42	-30.027
851.71	-29.075
852.01	-32.145
852.31	-30.572
852.60	-30.529
852.90	-32.306
853.20	-32.442
853.49	-32.024
853.79	-37.628
854.09	-34.632
854.38	-36.072
854.68	-34.850
854.98	-39.705
855.27	-34.681
855.57	-42.305
855.86	-38.017
856.16	-38.817
856.46	-39.115
856.75	-40.159
857.05	-41.443
857.34	-40.984
857.64	-44.549
857.94	-42.408
858.23	-43.917
858.53	-41.355
858.82	-45.079
859.12	-43.548
859.41	-42.010
859.71	-45.954
860.01	-45.361
860.30	-44.381
860.60	-49.953
860.89	-47.073
861.19	-41.961
861.48	-45.472
861.78	-43.687
862.07	-46.974
862.37	-47.747
862.66	-49.684
862.96	-44.762
863.25	-48.485
863.55	-41.036
863.84	-47.607
864.13	-50.098
864.43	-44.290
864.72	-48.441
865.02	-48.504
865.31	-48.819
865.61	-44.780
865.90	-44.807
866.19	-47.661
866.49	-45.339
866.78	-44.843
867.08	-45.205
867.37	-46.861
867.66	-49.587
867.96	-47.358
868.25	-40.624
868.55	-44.509
868.84	-52.002
869.13	-48.126
869.43	-49.464
869.72	-44.102
870.01	-50.377
870.31	-44.588
870.60	-49.698
870.89	-46.716
871.19	-42.701
871.48	-43.434
871.77	-47.621
872.07	-51.603
872.36	-47.895
872.65	-47.576
872.94	-53.601
873.24	-47.210
873.53	-50.025
873.82	-48.160
874.11	-51.165
874.41	-50.489
874.70	-56.193
>>>>>End Processed Spectral Data<<<<<
