SpectraSuite Data File
++++++++++++++++++++++++++++++++++++
Date: Mon Apr 27 20:47:21 BST 2015
User: mpfc3
Dark Spectrum Present: Yes
Reference Spectrum Present: Yes
Number of Sampled Component Spectra: 1
Spectrometers: USB2E3636
Integration Time (usec): 30000 (USB2E3636)
Spectra Averaged: 100 (USB2E3636)
Boxcar Smoothing: 0 (USB2E3636)
Correct for Electrical Dark: No (USB2E3636)
Strobe/Lamp Enabled: No (USB2E3636)
Correct for Detector Non-linearity: No (USB2E3636)
Correct for Stray Light: No (USB2E3636)
Number of Pixels in Processed Spectrum: 2048
>>>>>Begin Processed Spectral Data<<<<<
180.28	0.000
180.65	396.124
181.02	296.273
181.39	275.843
181.77	1882.609
182.14	525.000
182.51	427.273
182.88	289.881
183.25	316.129
183.63	638.571
184.00	378.302
184.37	3936.364
184.74	427.551
185.11	297.714
185.49	308.000
185.86	270.621
186.23	290.476
186.60	502.381
186.97	672.308
187.35	387.179
187.72	488.889
188.09	404.878
188.46	359.690
188.83	655.263
189.20	-106.027
189.58	-20.079
189.95	-14.201
190.32	-16.514
190.69	-18.854
191.06	-17.634
191.43	-14.793
191.81	-12.690
192.18	-16.767
192.55	-18.676
192.92	-16.162
193.29	-15.008
193.66	-20.472
194.03	-15.807
194.41	-14.150
194.78	-15.265
195.15	-19.272
195.52	-13.620
195.89	-16.042
196.26	-16.265
196.63	-20.943
197.01	-15.077
197.38	-12.115
197.75	-19.012
198.12	-17.847
198.49	-20.299
198.86	-17.827
199.23	-15.385
199.60	-15.197
199.98	-20.417
200.35	-14.722
200.72	-15.052
201.09	-16.941
201.46	-16.351
201.83	-16.556
202.20	-15.801
202.57	-17.084
202.94	-17.293
203.31	-19.342
203.69	-15.538
204.06	-14.458
204.43	-17.117
204.80	-16.908
205.17	-14.092
205.54	-15.138
205.91	-19.376
206.28	-17.560
206.65	-16.210
207.02	-19.161
207.39	-15.532
207.76	-16.511
208.14	-16.657
208.51	-18.476
208.88	-17.018
209.25	-12.972
209.62	-21.103
209.99	-17.490
210.36	-19.388
210.73	-17.760
211.10	-15.512
211.47	-14.972
211.84	-16.968
212.21	-18.949
212.58	-18.208
212.95	-19.453
213.32	-21.050
213.69	-21.187
214.06	-16.772
214.43	-17.640
214.80	-18.028
215.17	-18.717
215.55	-18.625
215.92	-19.330
216.29	-23.472
216.66	-15.533
217.03	-16.715
217.40	-20.250
217.77	-23.283
218.14	-20.955
218.51	-18.204
218.88	-21.823
219.25	-20.409
219.62	-19.157
219.99	-18.660
220.36	-20.225
220.73	-21.934
221.10	-25.030
221.47	-21.218
221.84	-18.488
222.21	-20.909
222.58	-19.825
222.95	-20.493
223.32	-17.840
223.69	-19.214
224.06	-21.691
224.43	-20.583
224.80	-16.920
225.17	-17.794
225.54	-17.730
225.91	-19.238
226.27	-16.149
226.64	-17.753
227.01	-20.961
227.38	-20.379
227.75	-18.502
228.12	-15.820
228.49	-21.641
228.86	-22.461
229.23	-22.585
229.60	-21.377
229.97	-17.295
230.34	-21.725
230.71	-25.585
231.08	-21.873
231.45	-16.037
231.82	-23.117
232.19	-16.140
232.56	-18.919
232.93	-24.765
233.30	-21.739
233.66	-22.776
234.03	-22.124
234.40	-25.105
234.77	-16.745
235.14	-22.050
235.51	-18.441
235.88	-18.416
236.25	-21.987
236.62	-20.182
236.99	-22.556
237.36	-25.125
237.73	-25.981
238.09	-17.096
238.46	-19.986
238.83	-26.633
239.20	-27.105
239.57	-23.343
239.94	-25.362
240.31	-23.147
240.68	-23.249
241.05	-25.929
241.41	-19.103
241.78	-27.460
242.15	-21.001
242.52	-22.569
242.89	-22.176
243.26	-20.687
243.63	-23.066
244.00	-25.127
244.36	-23.592
244.73	-21.817
245.10	-23.636
245.47	-26.392
245.84	-22.606
246.21	-22.721
246.58	-26.904
246.94	-22.550
247.31	-25.442
247.68	-21.367
248.05	-18.108
248.42	-26.113
248.79	-25.591
249.15	-23.026
249.52	-22.206
249.89	-24.527
250.26	-22.076
250.63	-20.857
251.00	-26.032
251.36	-18.894
251.73	-23.512
252.10	-19.095
252.47	-23.117
252.84	-29.960
253.20	-27.344
253.57	-23.948
253.94	-28.687
254.31	-25.059
254.68	-27.409
255.05	-25.039
255.41	-20.780
255.78	-30.926
256.15	-22.885
256.52	-32.213
256.88	-24.003
257.25	-30.750
257.62	-23.506
257.99	-28.775
258.36	-22.332
258.72	-25.208
259.09	-22.463
259.46	-22.666
259.83	-26.861
260.19	-22.678
260.56	-28.866
260.93	-33.170
261.30	-23.455
261.67	-21.286
262.03	-23.364
262.40	-29.030
262.77	-25.182
263.14	-22.810
263.50	-36.917
263.87	-24.228
264.24	-24.412
264.61	-29.466
264.97	-24.138
265.34	-32.478
265.71	-30.460
266.07	-29.293
266.44	-25.789
266.81	-23.845
267.18	-31.034
267.54	-33.198
267.91	-30.032
268.28	-28.711
268.64	-25.786
269.01	-26.556
269.38	-28.329
269.75	-27.488
270.11	-27.339
270.48	-17.188
270.85	-31.097
271.21	-28.965
271.58	-26.640
271.95	-26.754
272.32	-24.715
272.68	-28.594
273.05	-28.489
273.42	-30.118
273.78	-28.029
274.15	-24.024
274.52	-35.085
274.88	-35.963
275.25	-19.576
275.62	-28.536
275.98	-30.699
276.35	-26.187
276.72	-27.113
277.08	-31.466
277.45	-26.403
277.82	-26.358
278.18	-26.576
278.55	-24.612
278.92	-25.627
279.28	-30.579
279.65	-28.470
280.01	-26.032
280.38	-31.818
280.75	-37.701
281.11	-29.903
281.48	-31.927
281.85	-26.484
282.21	-30.532
282.58	-34.424
282.95	-32.264
283.31	-26.442
283.68	-29.365
284.04	-22.415
284.41	-27.828
284.78	-27.967
285.14	-24.221
285.51	-30.157
285.87	-27.506
286.24	-22.547
286.61	-20.246
286.97	-30.963
287.34	-26.171
287.70	-21.620
288.07	-22.404
288.44	-29.203
288.80	-32.749
289.17	-35.165
289.53	-23.239
289.90	-25.841
290.26	-25.369
290.63	-28.248
291.00	-36.833
291.36	-26.183
291.73	-23.299
292.09	-24.286
292.46	-29.921
292.82	-34.279
293.19	-27.092
293.56	-29.286
293.92	-31.557
294.29	-23.404
294.65	-17.353
295.02	-29.670
295.38	-21.835
295.75	-28.312
296.11	-28.256
296.48	-24.207
296.84	-25.547
297.21	-21.691
297.57	-28.003
297.94	-26.439
298.30	-30.794
298.67	-27.408
299.04	-26.080
299.40	-23.580
299.77	-22.161
300.13	-24.767
300.50	-25.920
300.86	-21.021
301.23	-28.187
301.59	-20.565
301.96	-25.277
302.32	-25.403
302.69	-22.803
303.05	-26.178
303.42	-24.942
303.78	-31.130
304.14	-18.530
304.51	-23.680
304.87	-19.109
305.24	-17.713
305.60	-25.835
305.97	-20.736
306.33	-22.653
306.70	-19.394
307.06	-21.234
307.43	-23.390
307.79	-28.947
308.16	-23.841
308.52	-27.614
308.88	-22.704
309.25	-25.393
309.61	-27.671
309.98	-30.520
310.34	-20.363
310.71	-19.088
311.07	-19.652
311.44	-19.727
311.80	-24.251
312.16	-23.246
312.53	-25.360
312.89	-19.008
313.26	-22.859
313.62	-28.697
313.98	-20.040
314.35	-18.847
314.71	-19.764
315.08	-21.579
315.44	-22.803
315.80	-21.526
316.17	-20.014
316.53	-20.187
316.90	-17.949
317.26	-22.548
317.62	-21.032
317.99	-18.931
318.35	-21.736
318.72	-20.483
319.08	-16.954
319.44	-19.685
319.81	-21.176
320.17	-17.636
320.53	-18.722
320.90	-14.132
321.26	-18.704
321.62	-17.594
321.99	-23.005
322.35	-16.717
322.72	-20.923
323.08	-16.744
323.44	-19.939
323.81	-17.004
324.17	-18.346
324.53	-17.384
324.90	-15.885
325.26	-17.003
325.62	-20.478
325.99	-12.326
326.35	-16.875
326.71	-15.495
327.08	-16.030
327.44	-13.397
327.80	-13.723
328.16	-15.514
328.53	-17.703
328.89	-16.042
329.25	-19.045
329.62	-12.516
329.98	-9.418
330.34	-13.462
330.71	-19.076
331.07	-17.712
331.43	-14.651
331.79	-14.710
332.16	-13.076
332.52	-14.786
332.88	-10.044
333.24	-14.421
333.61	-10.675
333.97	-13.158
334.33	-9.861
334.70	-14.559
335.06	-10.716
335.42	-12.454
335.78	-16.828
336.15	-8.829
336.51	-12.663
336.87	-12.006
337.23	-12.044
337.60	-11.259
337.96	-9.867
338.32	-9.804
338.68	-12.066
339.04	-12.491
339.41	-10.894
339.77	-11.560
340.13	-8.595
340.49	-8.680
340.86	-10.816
341.22	-9.847
341.58	-8.671
341.94	-8.756
342.30	-10.336
342.67	-8.456
343.03	-8.139
343.39	-6.947
343.75	-7.541
344.11	-8.193
344.48	-6.774
344.84	-8.073
345.20	-8.112
345.56	-7.123
345.92	-8.293
346.28	-7.421
346.65	-8.140
347.01	-6.436
347.37	-8.209
347.73	-8.424
348.09	-7.243
348.45	-5.934
348.82	-5.158
349.18	-8.185
349.54	-6.663
349.90	-5.551
350.26	-5.940
350.62	-7.321
350.98	-5.278
351.35	-5.525
351.71	-4.682
352.07	-7.004
352.43	-6.837
352.79	-6.577
353.15	-6.217
353.51	-3.827
353.87	-4.792
354.24	-6.166
354.60	-4.860
354.96	-5.393
355.32	-5.203
355.68	-5.028
356.04	-5.000
356.40	-5.460
356.76	-5.324
357.12	-5.330
357.48	-3.936
357.85	-3.501
358.21	-5.072
358.57	-3.865
358.93	-3.495
359.29	-3.744
359.65	-4.021
360.01	-3.539
360.37	-4.140
360.73	-4.339
361.09	-4.052
361.45	-3.391
361.81	-4.021
362.17	-3.127
362.53	-2.642
362.89	-4.476
363.25	-2.977
363.62	-3.288
363.98	-3.051
364.34	-4.307
364.70	-2.217
365.06	-2.892
365.42	-1.774
365.78	-2.856
366.14	-2.526
366.50	-2.276
366.86	-1.560
367.22	-3.439
367.58	-2.801
367.94	-2.539
368.30	-1.866
368.66	-3.453
369.02	-1.397
369.38	-3.051
369.74	-3.652
370.10	-3.284
370.46	-2.318
370.82	-1.843
371.18	-2.844
371.54	-2.564
371.90	-2.092
372.26	-1.805
372.62	-2.056
372.98	-1.854
373.33	-1.283
373.69	-1.844
374.05	-1.069
374.41	-1.666
374.77	-1.374
375.13	-2.073
375.49	-1.304
375.85	-1.766
376.21	-0.569
376.57	-1.909
376.93	-1.075
377.29	-0.763
377.65	-1.820
378.01	-1.349
378.37	-0.972
378.73	-1.401
379.08	-1.578
379.44	-1.125
379.80	-0.284
380.16	-1.124
380.52	-0.818
380.88	-0.300
381.24	-0.377
381.60	-1.142
381.96	-0.576
382.32	-0.481
382.67	-0.169
383.03	-0.932
383.39	-0.174
383.75	-0.142
384.11	-0.243
384.47	-0.084
384.83	0.319
385.19	0.107
385.54	-0.052
385.90	-0.015
386.26	0.552
386.62	-0.095
386.98	0.487
387.34	0.580
387.70	0.779
388.05	1.269
388.41	1.008
388.77	1.203
389.13	0.925
389.49	1.643
389.85	1.442
390.20	0.903
390.56	1.526
390.92	1.316
391.28	1.592
391.64	1.895
391.99	0.911
392.35	1.679
392.71	1.638
393.07	2.240
393.43	2.301
393.78	2.233
394.14	1.678
394.50	2.401
394.86	2.908
395.22	2.333
395.57	2.833
395.93	2.792
396.29	3.134
396.65	3.431
397.00	3.106
397.36	2.939
397.72	3.387
398.08	3.299
398.43	3.467
398.79	4.038
399.15	3.484
399.51	4.063
399.86	3.654
400.22	4.146
400.58	4.316
400.94	4.210
401.29	4.421
401.65	4.316
402.01	4.677
402.37	4.649
402.72	4.880
403.08	4.903
403.44	4.907
403.79	4.797
404.15	5.348
404.51	5.465
404.86	5.234
405.22	5.584
405.58	5.730
405.94	5.679
406.29	5.878
406.65	5.859
407.01	5.987
407.36	6.082
407.72	5.925
408.08	6.324
408.43	6.451
408.79	6.661
409.15	6.621
409.50	6.653
409.86	6.979
410.22	6.875
410.57	7.008
410.93	7.093
411.29	7.389
411.64	7.430
412.00	7.463
412.35	7.588
412.71	7.454
413.07	7.676
413.42	7.730
413.78	7.956
414.14	8.068
414.49	8.114
414.85	8.362
415.20	8.522
415.56	8.557
415.92	8.610
416.27	8.711
416.63	8.816
416.98	8.904
417.34	9.192
417.70	9.353
418.05	9.190
418.41	9.240
418.76	9.383
419.12	9.535
419.47	9.629
419.83	9.660
420.19	9.779
420.54	9.956
420.90	9.820
421.25	10.015
421.61	10.341
421.96	10.345
422.32	10.561
422.67	10.484
423.03	10.585
423.39	10.484
423.74	10.942
424.10	10.862
424.45	10.955
424.81	11.050
425.16	11.369
425.52	11.278
425.87	11.344
426.23	11.443
426.58	11.621
426.94	11.527
427.29	11.703
427.65	11.958
428.00	11.952
428.36	12.236
428.71	12.056
429.07	12.238
429.42	12.238
429.78	12.518
430.13	12.501
430.49	12.526
430.84	12.887
431.19	12.796
431.55	12.864
431.90	12.896
432.26	12.979
432.61	13.159
432.97	13.315
433.32	13.609
433.68	13.705
434.03	13.400
434.39	13.786
434.74	13.853
435.09	13.906
435.45	13.861
435.80	13.955
436.16	14.194
436.51	14.407
436.86	14.234
437.22	14.390
437.57	14.539
437.93	14.565
438.28	14.634
438.63	14.748
438.99	14.693
439.34	14.824
439.70	14.988
440.05	15.046
440.40	15.044
440.76	15.044
441.11	15.292
441.47	15.337
441.82	15.414
442.17	15.554
442.53	15.610
442.88	15.775
443.23	15.709
443.59	15.767
443.94	16.072
444.29	16.001
444.65	15.952
445.00	16.061
445.35	16.183
445.71	16.152
446.06	16.431
446.41	16.424
446.77	16.572
447.12	16.694
447.47	16.932
447.83	16.717
448.18	16.953
448.53	17.079
448.89	17.004
449.24	16.980
449.59	17.112
449.94	17.185
450.30	17.249
450.65	17.488
451.00	17.485
451.36	17.626
451.71	17.663
452.06	17.764
452.41	17.769
452.77	17.902
453.12	18.003
453.47	18.140
453.82	18.201
454.18	18.349
454.53	18.349
454.88	18.388
455.23	18.557
455.59	18.550
455.94	18.652
456.29	18.743
456.64	18.767
457.00	18.938
457.35	19.010
457.70	19.044
458.05	19.162
458.40	19.232
458.76	19.350
459.11	19.542
459.46	19.462
459.81	19.633
460.16	19.673
460.52	19.764
460.87	19.911
461.22	19.869
461.57	19.974
461.92	20.194
462.28	20.146
462.63	20.126
462.98	20.395
463.33	20.483
463.68	20.549
464.03	20.613
464.38	20.611
464.74	20.662
465.09	20.803
465.44	20.837
465.79	20.856
466.14	21.050
466.49	21.042
466.84	21.077
467.20	21.189
467.55	21.286
467.90	21.311
468.25	21.219
468.60	21.507
468.95	21.559
469.30	21.549
469.65	21.625
470.00	21.706
470.36	21.801
470.71	21.787
471.06	21.869
471.41	21.890
471.76	21.914
472.11	22.041
472.46	22.045
472.81	22.100
473.16	22.088
473.51	22.122
473.86	22.315
474.21	22.208
474.56	22.262
474.91	22.263
475.26	22.272
475.62	22.334
475.97	22.275
476.32	22.364
476.67	22.329
477.02	22.410
477.37	22.399
477.72	22.498
478.07	22.408
478.42	22.522
478.77	22.495
479.12	22.514
479.47	22.480
479.82	22.509
480.17	22.457
480.52	22.508
480.87	22.549
481.22	22.556
481.57	22.524
481.92	22.498
482.27	22.566
482.62	22.517
482.97	22.543
483.32	22.588
483.67	22.609
484.02	22.601
484.36	22.642
484.71	22.600
485.06	22.694
485.41	22.717
485.76	22.816
486.11	22.691
486.46	22.807
486.81	22.829
487.16	22.853
487.51	22.859
487.86	22.954
488.21	23.003
488.56	23.101
488.91	23.037
489.25	23.181
489.60	23.220
489.95	23.285
490.30	23.328
490.65	23.402
491.00	23.484
491.35	23.537
491.70	23.555
492.05	23.653
492.39	23.659
492.74	23.746
493.09	23.793
493.44	23.828
493.79	23.999
494.14	24.049
494.49	24.161
494.83	24.151
495.18	24.213
495.53	24.298
495.88	24.350
496.23	24.410
496.58	24.479
496.92	24.622
497.27	24.625
497.62	24.746
497.97	24.783
498.32	24.886
498.67	24.858
499.01	24.946
499.36	25.018
499.71	25.124
500.06	25.150
500.41	25.160
500.75	25.267
501.10	25.291
501.45	25.366
501.80	25.426
502.14	25.460
502.49	25.525
502.84	25.595
503.19	25.630
503.53	25.656
503.88	25.719
504.23	25.763
504.58	25.831
504.92	25.793
505.27	25.869
505.62	25.886
505.97	25.884
506.31	25.937
506.66	25.967
507.01	25.996
507.36	25.996
507.70	26.029
508.05	26.092
508.40	26.016
508.74	26.016
509.09	25.946
509.44	25.998
509.79	25.927
510.13	25.996
510.48	25.907
510.83	25.874
511.17	25.933
511.52	25.898
511.87	25.895
512.21	25.822
512.56	25.890
512.91	25.878
513.25	25.942
513.60	25.956
513.95	25.939
514.29	25.962
514.64	26.061
514.98	26.077
515.33	26.012
515.68	26.142
516.02	26.154
516.37	26.146
516.72	26.159
517.06	26.190
517.41	26.254
517.75	26.266
518.10	26.253
518.45	26.333
518.79	26.321
519.14	26.361
519.48	26.298
519.83	26.348
520.18	26.365
520.52	26.420
520.87	26.378
521.21	26.457
521.56	26.471
521.90	26.414
522.25	26.427
522.60	26.475
522.94	26.440
523.29	26.481
523.63	26.486
523.98	26.406
524.32	26.402
524.67	26.401
525.01	26.413
525.36	26.336
525.70	26.309
526.05	26.284
526.39	26.283
526.74	26.231
527.08	26.168
527.43	26.074
527.77	26.045
528.12	25.973
528.46	25.936
528.81	25.854
529.15	25.811
529.50	25.714
529.84	25.653
530.19	25.602
530.53	25.511
530.88	25.377
531.22	25.303
531.57	25.219
531.91	25.055
532.26	24.977
532.60	24.884
532.94	24.681
533.29	24.601
533.63	24.412
533.98	24.232
534.32	24.163
534.67	23.970
535.01	23.800
535.35	23.591
535.70	23.445
536.04	23.237
536.39	23.125
536.73	22.927
537.07	22.691
537.42	22.543
537.76	22.350
538.11	22.271
538.45	22.034
538.79	21.831
539.14	21.618
539.48	21.544
539.82	21.347
540.17	21.137
540.51	21.017
540.85	20.879
541.20	20.723
541.54	20.574
541.89	20.421
542.23	20.319
542.57	20.204
542.92	20.160
543.26	19.978
543.60	19.934
543.94	19.878
544.29	19.851
544.63	19.733
544.97	19.725
545.32	19.681
545.66	19.645
546.00	19.671
546.35	19.674
546.69	19.664
547.03	19.646
547.37	19.700
547.72	19.670
548.06	19.773
548.40	19.747
548.75	19.842
549.09	19.915
549.43	19.879
549.77	19.940
550.12	20.020
550.46	20.090
550.80	20.219
551.14	20.278
551.49	20.287
551.83	20.469
552.17	20.574
552.51	20.689
552.85	20.809
553.20	20.852
553.54	21.078
553.88	21.233
554.22	21.365
554.56	21.574
554.91	21.750
555.25	21.868
555.59	22.091
555.93	22.284
556.27	22.466
556.62	22.658
556.96	22.918
557.30	23.034
557.64	23.244
557.98	23.477
558.32	23.682
558.67	23.913
559.01	24.128
559.35	24.335
559.69	24.538
560.03	24.703
560.37	24.900
560.71	25.131
561.05	25.311
561.40	25.485
561.74	25.706
562.08	25.866
562.42	25.996
562.76	26.208
563.10	26.398
563.44	26.535
563.78	26.712
564.12	26.858
564.46	26.946
564.81	27.106
565.15	27.206
565.49	27.326
565.83	27.426
566.17	27.523
566.51	27.569
566.85	27.651
567.19	27.766
567.53	27.843
567.87	27.905
568.21	27.953
568.55	27.926
568.89	28.027
569.23	28.028
569.57	28.102
569.91	28.070
570.25	28.079
570.59	28.078
570.93	28.042
571.27	28.023
571.61	28.040
571.95	27.988
572.29	27.894
572.63	27.840
572.97	27.900
573.31	27.810
573.65	27.646
573.99	27.608
574.33	27.523
574.67	27.466
575.01	27.388
575.35	27.297
575.69	27.219
576.03	27.167
576.37	27.054
576.71	26.943
577.05	26.812
577.39	26.703
577.73	26.561
578.06	26.448
578.40	26.347
578.74	26.209
579.08	26.013
579.42	25.871
579.76	25.776
580.10	25.541
580.44	25.407
580.78	25.243
581.12	25.066
581.45	24.925
581.79	24.747
582.13	24.604
582.47	24.491
582.81	24.273
583.15	24.138
583.49	24.060
583.83	23.870
584.16	23.708
584.50	23.593
584.84	23.533
585.18	23.308
585.52	23.195
585.86	23.101
586.19	22.930
586.53	22.833
586.87	22.695
587.21	22.565
587.55	22.431
587.88	22.299
588.22	22.205
588.56	21.982
588.90	21.832
589.24	21.672
589.57	21.448
589.91	21.300
590.25	21.141
590.59	20.950
590.92	20.798
591.26	20.585
591.60	20.391
591.94	20.228
592.27	19.997
592.61	19.733
592.95	19.587
593.29	19.293
593.62	19.080
593.96	18.826
594.30	18.536
594.64	18.318
594.97	17.986
595.31	17.644
595.65	17.374
595.98	17.055
596.32	16.698
596.66	16.346
597.00	15.962
597.33	15.632
597.67	15.216
598.01	14.833
598.34	14.441
598.68	14.095
599.02	13.695
599.35	13.291
599.69	13.011
600.03	12.679
600.36	12.327
600.70	12.054
601.03	11.764
601.37	11.498
601.71	11.236
602.04	10.995
602.38	10.733
602.72	10.569
603.05	10.332
603.39	10.070
603.72	9.841
604.06	9.639
604.40	9.455
604.73	9.149
605.07	8.954
605.40	8.732
605.74	8.488
606.08	8.265
606.41	7.998
606.75	7.789
607.08	7.559
607.42	7.295
607.75	7.090
608.09	6.851
608.42	6.589
608.76	6.381
609.10	6.141
609.43	5.945
609.77	5.697
610.10	5.475
610.44	5.273
610.77	5.012
611.11	4.862
611.44	4.620
611.78	4.456
612.11	4.239
612.45	4.067
612.78	3.858
613.12	3.706
613.45	3.486
613.79	3.349
614.12	3.197
614.46	3.035
614.79	2.919
615.13	2.754
615.46	2.643
615.79	2.501
616.13	2.399
616.46	2.287
616.80	2.178
617.13	2.089
617.47	2.002
617.80	1.905
618.13	1.856
618.47	1.774
618.80	1.725
619.14	1.644
619.47	1.581
619.81	1.547
620.14	1.476
620.47	1.453
620.81	1.396
621.14	1.373
621.47	1.308
621.81	1.279
622.14	1.248
622.48	1.199
622.81	1.149
623.14	1.145
623.48	1.117
623.81	1.073
624.14	1.036
624.48	1.042
624.81	0.991
625.14	0.985
625.48	0.981
625.81	0.970
626.14	0.968
626.48	0.936
626.81	0.956
627.14	0.969
627.48	0.961
627.81	0.968
628.14	0.997
628.47	1.015
628.81	1.006
629.14	1.040
629.47	1.058
629.81	1.100
630.14	1.122
630.47	1.179
630.80	1.209
631.14	1.231
631.47	1.280
631.80	1.384
632.13	1.447
632.47	1.508
632.80	1.590
633.13	1.668
633.46	1.785
633.79	1.861
634.13	1.980
634.46	2.105
634.79	2.225
635.12	2.328
635.45	2.466
635.79	2.621
636.12	2.774
636.45	2.943
636.78	3.085
637.11	3.250
637.45	3.467
637.78	3.640
638.11	3.812
638.44	3.992
638.77	4.222
639.10	4.476
639.44	4.655
639.77	4.863
640.10	5.106
640.43	5.337
640.76	5.556
641.09	5.782
641.42	6.002
641.75	6.231
642.08	6.456
642.42	6.665
642.75	6.914
643.08	7.183
643.41	7.366
643.74	7.617
644.07	7.802
644.40	8.044
644.73	8.231
645.06	8.435
645.39	8.639
645.72	8.835
646.05	9.003
646.38	9.233
646.72	9.403
647.05	9.543
647.38	9.728
647.71	9.891
648.04	10.041
648.37	10.166
648.70	10.278
649.03	10.402
649.36	10.495
649.69	10.557
650.02	10.672
650.35	10.714
650.68	10.767
651.01	10.770
651.34	10.785
651.67	10.798
652.00	10.759
652.33	10.725
652.66	10.674
652.99	10.570
653.31	10.442
653.64	10.306
653.97	10.163
654.30	10.003
654.63	9.839
654.96	9.641
655.29	9.441
655.62	9.210
655.95	8.986
656.28	8.742
656.61	8.522
656.94	8.311
657.27	8.037
657.60	7.826
657.92	7.562
658.25	7.349
658.58	7.166
658.91	6.907
659.24	6.719
659.57	6.516
659.90	6.344
660.23	6.178
660.55	6.046
660.88	5.842
661.21	5.672
661.54	5.509
661.87	5.369
662.20	5.243
662.52	5.099
662.85	4.963
663.18	4.770
663.51	4.676
663.84	4.553
664.16	4.401
664.49	4.260
664.82	4.160
665.15	4.079
665.48	3.958
665.80	3.872
666.13	3.766
666.46	3.647
666.79	3.542
667.12	3.453
667.44	3.379
667.77	3.315
668.10	3.247
668.43	3.151
668.75	3.087
669.08	3.013
669.41	2.930
669.73	2.881
670.06	2.842
670.39	2.780
670.72	2.718
671.04	2.639
671.37	2.617
671.70	2.605
672.02	2.538
672.35	2.511
672.68	2.491
673.00	2.430
673.33	2.426
673.66	2.393
673.98	2.377
674.31	2.307
674.64	2.315
674.96	2.281
675.29	2.283
675.62	2.234
675.94	2.240
676.27	2.228
676.60	2.213
676.92	2.210
677.25	2.207
677.58	2.178
677.90	2.154
678.23	2.160
678.55	2.118
678.88	2.160
679.21	2.131
679.53	2.149
679.86	2.103
680.18	2.097
680.51	2.098
680.83	2.055
681.16	2.065
681.49	2.032
681.81	2.033
682.14	1.998
682.46	1.985
682.79	1.973
683.11	1.941
683.44	1.947
683.76	1.922
684.09	1.877
684.41	1.914
684.74	1.899
685.06	1.878
685.39	1.858
685.71	1.837
686.04	1.839
686.36	1.821
686.69	1.811
687.01	1.790
687.34	1.772
687.66	1.770
687.99	1.790
688.31	1.738
688.64	1.738
688.96	1.713
689.29	1.686
689.61	1.635
689.93	1.613
690.26	1.637
690.58	1.553
690.91	1.559
691.23	1.516
691.56	1.480
691.88	1.460
692.20	1.419
692.53	1.375
692.85	1.363
693.18	1.323
693.50	1.276
693.82	1.209
694.15	1.142
694.47	1.117
694.79	1.052
695.12	1.025
695.44	0.983
695.76	0.926
696.09	0.882
696.41	0.825
696.73	0.744
697.06	0.713
697.38	0.685
697.70	0.651
698.03	0.580
698.35	0.548
698.67	0.492
699.00	0.475
699.32	0.428
699.64	0.366
699.97	0.315
700.29	0.301
700.61	0.254
700.93	0.231
701.26	0.208
701.58	0.175
701.90	0.138
702.22	0.134
702.55	0.117
702.87	0.084
703.19	0.081
703.51	0.079
703.84	0.021
704.16	0.022
704.48	0.031
704.80	0.004
705.13	0.002
705.45	-0.038
705.77	-0.059
706.09	-0.027
706.41	-0.057
706.74	-0.073
707.06	-0.091
707.38	-0.085
707.70	-0.070
708.02	-0.086
708.34	-0.113
708.67	-0.080
708.99	-0.090
709.31	-0.100
709.63	-0.115
709.95	-0.127
710.27	-0.119
710.59	-0.091
710.92	-0.100
711.24	-0.131
711.56	-0.141
711.88	-0.122
712.20	-0.123
712.52	-0.134
712.84	-0.173
713.16	-0.115
713.48	-0.187
713.80	-0.175
714.12	-0.148
714.45	-0.156
714.77	-0.160
715.09	-0.169
715.41	-0.149
715.73	-0.155
716.05	-0.159
716.37	-0.208
716.69	-0.163
717.01	-0.158
717.33	-0.177
717.65	-0.225
717.97	-0.215
718.29	-0.206
718.61	-0.214
718.93	-0.217
719.25	-0.201
719.57	-0.182
719.89	-0.220
720.21	-0.232
720.53	-0.251
720.85	-0.237
721.17	-0.213
721.49	-0.269
721.81	-0.219
722.13	-0.256
722.45	-0.247
722.77	-0.267
723.09	-0.268
723.41	-0.210
723.72	-0.217
724.04	-0.300
724.36	-0.214
724.68	-0.254
725.00	-0.299
725.32	-0.306
725.64	-0.289
725.96	-0.286
726.28	-0.287
726.60	-0.357
726.91	-0.260
727.23	-0.393
727.55	-0.357
727.87	-0.326
728.19	-0.379
728.51	-0.331
728.83	-0.391
729.14	-0.342
729.46	-0.327
729.78	-0.340
730.10	-0.419
730.42	-0.392
730.74	-0.465
731.05	-0.363
731.37	-0.296
731.69	-0.394
732.01	-0.364
732.33	-0.381
732.64	-0.348
732.96	-0.370
733.28	-0.429
733.60	-0.483
733.92	-0.388
734.23	-0.464
734.55	-0.532
734.87	-0.433
735.19	-0.446
735.50	-0.446
735.82	-0.467
736.14	-0.382
736.45	-0.436
736.77	-0.419
737.09	-0.507
737.41	-0.473
737.72	-0.380
738.04	-0.450
738.36	-0.399
738.67	-0.461
738.99	-0.466
739.31	-0.401
739.63	-0.512
739.94	-0.430
740.26	-0.449
740.58	-0.386
740.89	-0.304
741.21	-0.435
741.52	-0.431
741.84	-0.456
742.16	-0.453
742.47	-0.313
742.79	-0.437
743.11	-0.364
743.42	-0.404
743.74	-0.360
744.05	-0.425
744.37	-0.410
744.69	-0.281
745.00	-0.400
745.32	-0.411
745.63	-0.416
745.95	-0.372
746.27	-0.401
746.58	-0.330
746.90	-0.369
747.21	-0.414
747.53	-0.370
747.84	-0.431
748.16	-0.332
748.47	-0.386
748.79	-0.357
749.10	-0.375
749.42	-0.353
749.74	-0.426
750.05	-0.369
750.37	-0.315
750.68	-0.371
751.00	-0.399
751.31	-0.315
751.62	-0.351
751.94	-0.338
752.25	-0.329
752.57	-0.439
752.88	-0.348
753.20	-0.278
753.51	-0.395
753.83	-0.253
754.14	-0.380
754.46	-0.358
754.77	-0.326
755.08	-0.322
755.40	-0.278
755.71	-0.353
756.03	-0.378
756.34	-0.278
756.66	-0.343
756.97	-0.345
757.28	-0.372
757.60	-0.347
757.91	-0.299
758.22	-0.250
758.54	-0.333
758.85	-0.304
759.17	-0.334
759.48	-0.265
759.79	-0.301
760.11	-0.317
760.42	-0.375
760.73	-0.342
761.05	-0.326
761.36	-0.301
761.67	-0.212
761.99	-0.332
762.30	-0.314
762.61	-0.303
762.92	-0.294
763.24	-0.318
763.55	-0.319
763.86	-0.311
764.18	-0.323
764.49	-0.297
764.80	-0.295
765.11	-0.287
765.43	-0.230
765.74	-0.298
766.05	-0.271
766.36	-0.330
766.68	-0.263
766.99	-0.353
767.30	-0.285
767.61	-0.317
767.93	-0.362
768.24	-0.300
768.55	-0.311
768.86	-0.308
769.17	-0.298
769.49	-0.320
769.80	-0.305
770.11	-0.265
770.42	-0.327
770.73	-0.225
771.04	-0.256
771.36	-0.283
771.67	-0.312
771.98	-0.284
772.29	-0.301
772.60	-0.321
772.91	-0.331
773.22	-0.268
773.54	-0.300
773.85	-0.300
774.16	-0.325
774.47	-0.263
774.78	-0.323
775.09	-0.327
775.40	-0.325
775.71	-0.311
776.02	-0.284
776.33	-0.305
776.64	-0.287
776.96	-0.343
777.27	-0.336
777.58	-0.342
777.89	-0.336
778.20	-0.320
778.51	-0.310
778.82	-0.332
779.13	-0.347
779.44	-0.393
779.75	-0.336
780.06	-0.377
780.37	-0.298
780.68	-0.375
780.99	-0.337
781.30	-0.358
781.61	-0.319
781.92	-0.413
782.23	-0.348
782.54	-0.423
782.85	-0.374
783.16	-0.425
783.47	-0.342
783.78	-0.444
784.08	-0.357
784.39	-0.474
784.70	-0.390
785.01	-0.398
785.32	-0.396
785.63	-0.353
785.94	-0.392
786.25	-0.429
786.56	-0.359
786.87	-0.386
787.18	-0.415
787.48	-0.412
787.79	-0.390
788.10	-0.393
788.41	-0.482
788.72	-0.416
789.03	-0.437
789.34	-0.405
789.64	-0.426
789.95	-0.478
790.26	-0.482
790.57	-0.505
790.88	-0.437
791.19	-0.395
791.49	-0.526
791.80	-0.486
792.11	-0.478
792.42	-0.439
792.73	-0.546
793.03	-0.597
793.34	-0.554
793.65	-0.543
793.96	-0.637
794.27	-0.531
794.57	-0.481
794.88	-0.536
795.19	-0.545
795.50	-0.582
795.80	-0.594
796.11	-0.571
796.42	-0.547
796.72	-0.614
797.03	-0.614
797.34	-0.436
797.65	-0.577
797.95	-0.670
798.26	-0.553
798.57	-0.656
798.87	-0.522
799.18	-0.627
799.49	-0.737
799.79	-0.627
800.10	-0.666
800.41	-0.660
800.71	-0.621
801.02	-0.659
801.33	-0.767
801.63	-0.724
801.94	-0.757
802.24	-0.760
802.55	-0.766
802.86	-0.656
803.16	-0.877
803.47	-0.713
803.77	-0.757
804.08	-0.862
804.39	-0.862
804.69	-0.833
805.00	-0.809
805.30	-0.797
805.61	-0.741
805.91	-0.757
806.22	-0.825
806.53	-0.720
806.83	-0.838
807.14	-0.939
807.44	-0.766
807.75	-0.863
808.05	-0.793
808.36	-0.845
808.66	-0.866
808.97	-0.871
809.27	-0.839
809.58	-0.799
809.88	-1.015
810.19	-0.941
810.49	-0.856
810.80	-0.836
811.10	-0.973
811.41	-1.024
811.71	-0.969
812.01	-1.062
812.32	-0.967
812.62	-1.055
812.93	-0.848
813.23	-0.983
813.54	-1.037
813.84	-0.832
814.14	-1.053
814.45	-1.044
814.75	-0.976
815.06	-1.155
815.36	-1.244
815.66	-1.174
815.97	-1.336
816.27	-1.135
816.58	-1.158
816.88	-1.222
817.18	-1.193
817.49	-1.234
817.79	-1.159
818.09	-1.202
818.40	-1.288
818.70	-1.269
819.00	-1.284
819.31	-1.581
819.61	-1.625
819.91	-1.422
820.21	-1.327
820.52	-1.401
820.82	-1.233
821.12	-1.410
821.43	-1.162
821.73	-1.523
822.03	-1.349
822.33	-1.450
822.64	-1.540
822.94	-1.625
823.24	-1.369
823.54	-1.439
823.85	-1.590
824.15	-1.567
824.45	-1.755
824.75	-1.386
825.05	-1.574
825.36	-1.651
825.66	-1.745
825.96	-2.032
826.26	-1.945
826.56	-2.056
826.87	-1.976
827.17	-1.478
827.47	-1.987
827.77	-2.152
828.07	-1.717
828.37	-1.950
828.67	-2.037
828.98	-2.393
829.28	-2.135
829.58	-2.318
829.88	-2.115
830.18	-2.289
830.48	-2.230
830.78	-2.629
831.08	-2.656
831.38	-2.471
831.69	-2.307
831.99	-2.523
832.29	-2.470
832.59	-2.722
832.89	-3.160
833.19	-2.255
833.49	-2.826
833.79	-2.765
834.09	-2.935
834.39	-2.795
834.69	-3.060
834.99	-3.234
835.29	-3.472
835.59	-3.213
835.89	-3.646
836.19	-3.158
836.49	-3.802
836.79	-4.021
837.09	-4.181
837.39	-3.981
837.69	-4.558
837.99	-4.015
838.29	-4.604
838.59	-4.525
838.89	-3.378
839.19	-4.748
839.49	-4.857
839.79	-4.601
840.09	-4.531
840.39	-4.801
840.68	-4.771
840.98	-4.571
841.28	-5.055
841.58	-5.482
841.88	-4.831
842.18	-4.626
842.48	-5.406
842.78	-4.479
843.08	-5.282
843.37	-5.905
843.67	-5.346
843.97	-5.890
844.27	-6.317
844.57	-5.766
844.87	-5.633
845.16	-7.183
845.46	-5.438
845.76	-6.422
846.06	-7.077
846.36	-7.289
846.66	-6.455
846.95	-7.929
847.25	-8.407
847.55	-8.345
847.85	-9.935
848.14	-7.751
848.44	-8.067
848.74	-7.083
849.04	-8.330
849.33	-6.003
849.63	-10.249
849.93	-9.968
850.23	-10.103
850.52	-11.294
850.82	-9.731
851.12	-11.867
851.42	-10.157
851.71	-11.063
852.01	-10.143
852.31	-10.939
852.60	-13.715
852.90	-11.515
853.20	-12.903
853.49	-12.245
853.79	-11.817
854.09	-13.623
854.38	-12.649
854.68	-14.649
854.98	-14.375
855.27	-13.618
855.57	-15.976
855.86	-12.555
856.16	-12.328
856.46	-13.239
856.75	-15.289
857.05	-14.411
857.34	-14.898
857.64	-14.844
857.94	-16.197
858.23	-15.402
858.53	-15.908
858.82	-13.366
859.12	-17.508
859.41	-17.353
859.71	-14.346
860.01	-18.373
860.30	-16.660
860.60	-14.582
860.89	-14.966
861.19	-17.582
861.48	-15.527
861.78	-18.702
862.07	-16.183
862.37	-18.017
862.66	-17.261
862.96	-14.630
863.25	-14.877
863.55	-16.318
863.84	-17.530
864.13	-15.184
864.43	-15.866
864.72	-13.735
865.02	-17.047
865.31	-16.758
865.61	-19.795
865.90	-14.563
866.19	-18.753
866.49	-15.466
866.78	-17.871
867.08	-18.248
867.37	-18.263
867.66	-16.291
867.96	-14.028
868.25	-15.310
868.55	-15.367
868.84	-19.117
869.13	-19.527
869.43	-18.063
869.72	-16.411
870.01	-16.687
870.31	-16.774
870.60	-15.207
870.89	-20.828
871.19	-17.590
871.48	-17.978
871.77	-19.350
872.07	-20.291
872.36	-16.680
872.65	-16.809
872.94	-18.472
873.24	-18.494
873.53	-18.428
873.82	-19.564
874.11	-19.030
874.41	-18.163
874.70	-18.299
>>>>>End Processed Spectral Data<<<<<
