SpectraSuite Data File
++++++++++++++++++++++++++++++++++++
Date: Mon Apr 20 20:45:30 BST 2015
User: mpfc3
Dark Spectrum Present: Yes
Reference Spectrum Present: Yes
Number of Sampled Component Spectra: 1
Spectrometers: USB2E3636
Integration Time (usec): 30000 (USB2E3636)
Spectra Averaged: 100 (USB2E3636)
Boxcar Smoothing: 0 (USB2E3636)
Correct for Electrical Dark: No (USB2E3636)
Strobe/Lamp Enabled: No (USB2E3636)
Correct for Detector Non-linearity: No (USB2E3636)
Correct for Stray Light: No (USB2E3636)
Number of Pixels in Processed Spectrum: 2048
>>>>>Begin Processed Spectral Data<<<<<
180.28	0.000
180.65	255.824
181.02	229.231
181.39	254.728
181.77	263.229
182.14	260.131
182.51	263.982
182.88	259.956
183.25	269.163
183.63	236.243
184.00	248.837
184.37	235.611
184.74	245.491
185.11	259.226
185.49	275.116
185.86	223.091
186.23	275.297
186.60	265.632
186.97	265.596
187.35	259.565
187.72	271.625
188.09	225.545
188.46	234.937
188.83	238.735
189.20	-2602.326
189.58	-65.670
189.95	-65.339
190.32	-70.185
190.69	-60.298
191.06	-65.661
191.43	-72.067
191.81	-63.196
192.18	-66.423
192.55	-63.747
192.92	-62.117
193.29	-64.890
193.66	-62.314
194.03	-65.793
194.41	-67.651
194.78	-68.326
195.15	-68.089
195.52	-59.157
195.89	-69.036
196.26	-64.578
196.63	-69.529
197.01	-69.835
197.38	-69.777
197.75	-66.776
198.12	-62.956
198.49	-68.597
198.86	-58.172
199.23	-71.093
199.60	-64.135
199.98	-71.261
200.35	-62.492
200.72	-69.210
201.09	-74.587
201.46	-71.628
201.83	-66.270
202.20	-67.857
202.57	-71.103
202.94	-72.834
203.31	-62.104
203.69	-64.043
204.06	-64.188
204.43	-65.804
204.80	-70.897
205.17	-76.243
205.54	-68.828
205.91	-70.556
206.28	-67.427
206.65	-75.109
207.02	-75.491
207.39	-70.347
207.76	-70.822
208.14	-70.226
208.51	-65.852
208.88	-66.572
209.25	-72.266
209.62	-72.350
209.99	-74.596
210.36	-69.075
210.73	-70.072
211.10	-76.746
211.47	-67.259
211.84	-71.489
212.21	-76.070
212.58	-75.148
212.95	-74.338
213.32	-74.551
213.69	-67.539
214.06	-70.821
214.43	-72.741
214.80	-79.300
215.17	-76.048
215.55	-78.220
215.92	-73.554
216.29	-71.033
216.66	-70.426
217.03	-76.150
217.40	-66.567
217.77	-73.407
218.14	-79.584
218.51	-77.769
218.88	-81.314
219.25	-70.435
219.62	-79.124
219.99	-83.161
220.36	-79.122
220.73	-77.456
221.10	-71.887
221.47	-67.480
221.84	-85.157
222.21	-87.884
222.58	-83.010
222.95	-86.978
223.32	-84.189
223.69	-81.120
224.06	-77.646
224.43	-75.218
224.80	-78.814
225.17	-93.979
225.54	-77.643
225.91	-82.146
226.27	-69.438
226.64	-81.049
227.01	-80.592
227.38	-85.455
227.75	-87.868
228.12	-82.112
228.49	-84.497
228.86	-87.412
229.23	-93.889
229.60	-91.111
229.97	-85.502
230.34	-85.314
230.71	-88.314
231.08	-91.547
231.45	-85.217
231.82	-80.944
232.19	-88.113
232.56	-88.271
232.93	-93.352
233.30	-91.889
233.66	-90.445
234.03	-89.673
234.40	-78.081
234.77	-87.776
235.14	-93.078
235.51	-93.936
235.88	-97.601
236.25	-96.472
236.62	-90.558
236.99	-91.605
237.36	-88.919
237.73	-98.567
238.09	-93.579
238.46	-90.775
238.83	-90.835
239.20	-96.122
239.57	-87.067
239.94	-86.937
240.31	-87.832
240.68	-89.204
241.05	-104.930
241.41	-91.086
241.78	-106.244
242.15	-92.864
242.52	-99.430
242.89	-107.466
243.26	-99.136
243.63	-89.821
244.00	-104.069
244.36	-82.548
244.73	-93.127
245.10	-100.906
245.47	-85.586
245.84	-97.471
246.21	-102.092
246.58	-97.444
246.94	-94.433
247.31	-102.014
247.68	-104.214
248.05	-98.291
248.42	-105.694
248.79	-103.967
249.15	-109.826
249.52	-107.404
249.89	-104.357
250.26	-105.900
250.63	-106.992
251.00	-112.393
251.36	-97.492
251.73	-101.213
252.10	-112.082
252.47	-106.428
252.84	-106.325
253.20	-105.015
253.57	-101.343
253.94	-114.618
254.31	-97.892
254.68	-107.392
255.05	-104.962
255.41	-103.958
255.78	-110.178
256.15	-99.792
256.52	-99.602
256.88	-111.064
257.25	-114.764
257.62	-107.892
257.99	-105.791
258.36	-109.904
258.72	-118.576
259.09	-112.376
259.46	-129.518
259.83	-117.770
260.19	-98.780
260.56	-115.789
260.93	-110.706
261.30	-112.323
261.67	-129.338
262.03	-112.500
262.40	-111.746
262.77	-117.489
263.14	-121.170
263.50	-119.273
263.87	-121.140
264.24	-115.172
264.61	-121.453
264.97	-114.029
265.34	-113.984
265.71	-111.934
266.07	-108.705
266.44	-117.922
266.81	-122.659
267.18	-110.911
267.54	-120.970
267.91	-107.214
268.28	-118.900
268.64	-111.849
269.01	-100.768
269.38	-128.033
269.75	-121.354
270.11	-137.468
270.48	-125.656
270.85	-103.040
271.21	-119.276
271.58	-120.568
271.95	-115.973
272.32	-111.049
272.68	-106.674
273.05	-125.745
273.42	-113.477
273.78	-103.736
274.15	-125.741
274.52	-110.156
274.88	-119.109
275.25	-114.848
275.62	-103.386
275.98	-102.980
276.35	-112.404
276.72	-101.507
277.08	-117.034
277.45	-105.444
277.82	-116.298
278.18	-105.402
278.55	-117.411
278.92	-115.258
279.28	-102.398
279.65	-112.965
280.01	-128.290
280.38	-114.865
280.75	-120.868
281.11	-123.821
281.48	-115.197
281.85	-125.841
282.21	-127.207
282.58	-116.744
282.95	-116.216
283.31	-113.441
283.68	-114.483
284.04	-93.388
284.41	-112.972
284.78	-116.515
285.14	-116.533
285.51	-108.882
285.87	-114.480
286.24	-119.815
286.61	-122.738
286.97	-108.134
287.34	-126.667
287.70	-122.444
288.07	-104.111
288.44	-113.982
288.80	-117.436
289.17	-114.939
289.53	-116.340
289.90	-111.591
290.26	-125.509
290.63	-101.028
291.00	-125.697
291.36	-105.152
291.73	-100.934
292.09	-105.513
292.46	-108.371
292.82	-113.728
293.19	-111.711
293.56	-123.854
293.92	-106.084
294.29	-123.032
294.65	-118.634
295.02	-116.349
295.38	-134.726
295.75	-105.348
296.11	-110.781
296.48	-105.156
296.84	-116.303
297.21	-128.638
297.57	-115.545
297.94	-120.024
298.30	-115.101
298.67	-109.312
299.04	-121.647
299.40	-110.707
299.77	-106.904
300.13	-122.133
300.50	-98.127
300.86	-114.944
301.23	-105.585
301.59	-97.074
301.96	-136.654
302.32	-115.086
302.69	-113.355
303.05	-97.857
303.42	-99.366
303.78	-103.598
304.14	-103.638
304.51	-102.292
304.87	-124.483
305.24	-86.151
305.60	-100.100
305.97	-93.465
306.33	-98.113
306.70	-96.205
307.06	-93.762
307.43	-97.203
307.79	-104.438
308.16	-92.571
308.52	-102.472
308.88	-113.504
309.25	-98.732
309.61	-96.127
309.98	-105.720
310.34	-102.586
310.71	-95.379
311.07	-95.536
311.44	-105.160
311.80	-95.910
312.16	-89.005
312.53	-95.805
312.89	-98.252
313.26	-88.710
313.62	-98.527
313.98	-91.075
314.35	-93.427
314.71	-92.761
315.08	-98.658
315.44	-98.373
315.80	-92.582
316.17	-88.102
316.53	-79.898
316.90	-79.325
317.26	-95.161
317.62	-82.982
317.99	-84.720
318.35	-79.918
318.72	-78.612
319.08	-77.393
319.44	-89.113
319.81	-71.475
320.17	-83.470
320.53	-83.977
320.90	-70.872
321.26	-78.656
321.62	-76.797
321.99	-77.163
322.35	-69.904
322.72	-72.741
323.08	-74.169
323.44	-70.082
323.81	-72.051
324.17	-75.344
324.53	-71.200
324.90	-70.692
325.26	-68.462
325.62	-69.017
325.99	-81.655
326.35	-66.984
326.71	-70.000
327.08	-58.323
327.44	-66.093
327.80	-63.329
328.16	-58.978
328.53	-66.317
328.89	-68.254
329.25	-69.787
329.62	-51.072
329.98	-50.157
330.34	-55.274
330.71	-59.004
331.07	-54.850
331.43	-52.572
331.79	-47.758
332.16	-49.276
332.52	-50.923
332.88	-50.000
333.24	-51.421
333.61	-51.613
333.97	-51.218
334.33	-45.224
334.70	-42.467
335.06	-44.444
335.42	-45.219
335.78	-44.351
336.15	-42.626
336.51	-42.766
336.87	-44.434
337.23	-42.826
337.60	-41.233
337.96	-41.240
338.32	-39.659
338.68	-37.919
339.04	-39.041
339.41	-37.605
339.77	-35.029
340.13	-37.056
340.49	-39.083
340.86	-37.396
341.22	-35.422
341.58	-36.146
341.94	-35.894
342.30	-35.857
342.67	-36.170
343.03	-33.603
343.39	-32.885
343.75	-31.235
344.11	-32.167
344.48	-29.865
344.84	-32.540
345.20	-28.376
345.56	-31.581
345.92	-29.277
346.28	-29.604
346.65	-28.846
347.01	-29.853
347.37	-27.113
347.73	-26.147
348.09	-26.973
348.45	-23.471
348.82	-25.436
349.18	-25.948
349.54	-24.698
349.90	-24.521
350.26	-24.702
350.62	-23.146
350.98	-22.893
351.35	-21.956
351.71	-22.987
352.07	-21.612
352.43	-21.739
352.79	-20.507
353.15	-20.632
353.51	-19.531
353.87	-22.452
354.24	-18.997
354.60	-19.556
354.96	-18.665
355.32	-19.027
355.68	-19.209
356.04	-19.030
356.40	-18.632
356.76	-18.349
357.12	-17.954
357.48	-17.462
357.85	-17.466
358.21	-17.227
358.57	-16.434
358.93	-17.981
359.29	-16.879
359.65	-15.704
360.01	-14.593
360.37	-16.628
360.73	-15.897
361.09	-14.734
361.45	-14.682
361.81	-15.061
362.17	-14.754
362.53	-12.806
362.89	-14.306
363.25	-13.512
363.62	-13.514
363.98	-14.612
364.34	-14.536
364.70	-12.438
365.06	-12.808
365.42	-13.050
365.78	-12.339
366.14	-12.144
366.50	-11.753
366.86	-12.006
367.22	-12.411
367.58	-11.826
367.94	-11.354
368.30	-10.872
368.66	-10.616
369.02	-10.174
369.38	-10.245
369.74	-10.903
370.10	-10.331
370.46	-10.614
370.82	-10.682
371.18	-10.151
371.54	-9.427
371.90	-10.560
372.26	-9.557
372.62	-9.575
372.98	-8.911
373.33	-8.577
373.69	-8.755
374.05	-9.413
374.41	-8.763
374.77	-8.376
375.13	-8.747
375.49	-8.223
375.85	-7.902
376.21	-7.654
376.57	-8.026
376.93	-7.831
377.29	-7.187
377.65	-6.927
378.01	-7.477
378.37	-6.903
378.73	-7.388
379.08	-6.505
379.44	-6.537
379.80	-6.212
380.16	-6.488
380.52	-6.756
380.88	-6.181
381.24	-5.412
381.60	-5.658
381.96	-5.112
382.32	-5.155
382.67	-5.472
383.03	-5.475
383.39	-4.638
383.75	-5.425
384.11	-4.395
384.47	-4.581
384.83	-4.137
385.19	-4.282
385.54	-4.185
385.90	-3.961
386.26	-3.956
386.62	-3.894
386.98	-3.077
387.34	-3.273
387.70	-3.404
388.05	-3.498
388.41	-2.777
388.77	-2.155
389.13	-2.233
389.49	-1.992
389.85	-2.079
390.20	-1.980
390.56	-2.084
390.92	-1.672
391.28	-1.511
391.64	-1.280
391.99	-1.073
392.35	-0.825
392.71	-0.691
393.07	-0.789
393.43	-0.760
393.78	-0.492
394.14	-0.691
394.50	-0.175
394.86	0.164
395.22	0.143
395.57	0.034
395.93	0.678
396.29	0.703
396.65	0.652
397.00	0.879
397.36	1.186
397.72	1.280
398.08	1.533
398.43	1.303
398.79	1.592
399.15	1.983
399.51	2.296
399.86	2.309
400.22	2.429
400.58	2.404
400.94	2.670
401.29	3.005
401.65	2.716
402.01	3.050
402.37	3.437
402.72	3.621
403.08	3.684
403.44	3.627
403.79	3.904
404.15	3.956
404.51	4.067
404.86	4.196
405.22	4.670
405.58	4.414
405.94	4.892
406.29	5.008
406.65	5.162
407.01	5.139
407.36	5.471
407.72	5.836
408.08	5.398
408.43	5.529
408.79	6.006
409.15	6.057
409.50	6.380
409.86	6.401
410.22	6.317
410.57	6.704
410.93	6.758
411.29	7.251
411.64	7.169
412.00	7.491
412.35	7.603
412.71	7.475
413.07	7.880
413.42	7.707
413.78	8.086
414.14	8.181
414.49	8.251
414.85	8.381
415.20	8.513
415.56	8.639
415.92	8.963
416.27	8.943
416.63	9.173
416.98	9.466
417.34	9.541
417.70	9.731
418.05	9.474
418.41	9.718
418.76	10.039
419.12	10.067
419.47	10.261
419.83	10.356
420.19	10.594
420.54	10.807
420.90	11.005
421.25	10.889
421.61	11.298
421.96	11.078
422.32	11.279
422.67	11.368
423.03	11.607
423.39	11.835
423.74	11.701
424.10	11.985
424.45	12.007
424.81	12.195
425.16	12.359
425.52	12.416
425.87	12.359
426.23	12.764
426.58	12.940
426.94	13.138
427.29	13.096
427.65	13.131
428.00	13.466
428.36	13.453
428.71	13.643
429.07	13.681
429.42	13.842
429.78	13.897
430.13	14.087
430.49	14.305
430.84	14.207
431.19	14.386
431.55	14.579
431.90	14.671
432.26	14.607
432.61	14.668
432.97	15.066
433.32	15.035
433.68	15.202
434.03	15.240
434.39	15.538
434.74	15.459
435.09	15.618
435.45	15.853
435.80	15.861
436.16	16.054
436.51	16.041
436.86	16.176
437.22	16.428
437.57	16.632
437.93	16.572
438.28	16.626
438.63	16.730
438.99	16.813
439.34	17.079
439.70	17.019
440.05	17.096
440.40	17.091
440.76	17.319
441.11	17.496
441.47	17.530
441.82	17.745
442.17	17.789
442.53	17.719
442.88	17.865
443.23	17.986
443.59	18.100
443.94	18.277
444.29	18.211
444.65	18.384
445.00	18.502
445.35	18.715
445.71	18.816
446.06	18.840
446.41	18.830
446.77	18.880
447.12	19.126
447.47	19.104
447.83	19.270
448.18	19.403
448.53	19.348
448.89	19.574
449.24	19.497
449.59	19.697
449.94	19.888
450.30	19.889
450.65	20.076
451.00	20.128
451.36	20.226
451.71	20.214
452.06	20.434
452.41	20.585
452.77	20.471
453.12	20.733
453.47	20.855
453.82	21.008
454.18	21.076
454.53	20.994
454.88	21.062
455.23	21.246
455.59	21.373
455.94	21.504
456.29	21.661
456.64	21.763
457.00	21.794
457.35	21.970
457.70	22.004
458.05	22.066
458.40	22.137
458.76	22.127
459.11	22.324
459.46	22.323
459.81	22.507
460.16	22.494
460.52	22.766
460.87	22.904
461.22	22.866
461.57	22.991
461.92	23.003
462.28	23.141
462.63	23.281
462.98	23.427
463.33	23.385
463.68	23.518
464.03	23.686
464.38	23.613
464.74	23.830
465.09	23.742
465.44	23.864
465.79	23.990
466.14	24.080
466.49	24.157
466.84	24.312
467.20	24.348
467.55	24.441
467.90	24.511
468.25	24.767
468.60	24.713
468.95	24.703
469.30	24.675
469.65	24.919
470.00	24.958
470.36	24.957
470.71	25.035
471.06	25.061
471.41	25.124
471.76	25.244
472.11	25.240
472.46	25.275
472.81	25.411
473.16	25.391
473.51	25.496
473.86	25.434
474.21	25.568
474.56	25.463
474.91	25.582
475.26	25.593
475.62	25.599
475.97	25.631
476.32	25.640
476.67	25.706
477.02	25.709
477.37	25.754
477.72	25.861
478.07	25.722
478.42	25.786
478.77	25.783
479.12	25.789
479.47	25.887
479.82	25.816
480.17	25.884
480.52	25.775
480.87	25.816
481.22	25.898
481.57	25.795
481.92	25.828
482.27	25.895
482.62	25.926
482.97	25.875
483.32	25.926
483.67	25.939
484.02	25.950
484.36	25.886
484.71	25.980
485.06	25.987
485.41	26.065
485.76	26.115
486.11	26.110
486.46	26.148
486.81	26.232
487.16	26.219
487.51	26.245
487.86	26.259
488.21	26.264
488.56	26.332
488.91	26.489
489.25	26.569
489.60	26.562
489.95	26.642
490.30	26.721
490.65	26.780
491.00	26.812
491.35	26.922
491.70	26.998
492.05	27.074
492.39	27.196
492.74	27.286
493.09	27.224
493.44	27.322
493.79	27.459
494.14	27.517
494.49	27.593
494.83	27.588
495.18	27.742
495.53	27.774
495.88	27.911
496.23	28.024
496.58	27.974
496.92	28.148
497.27	28.226
497.62	28.272
497.97	28.359
498.32	28.478
498.67	28.541
499.01	28.614
499.36	28.641
499.71	28.697
500.06	28.790
500.41	28.875
500.75	28.962
501.10	28.980
501.45	29.030
501.80	29.088
502.14	29.120
502.49	29.179
502.84	29.292
503.19	29.347
503.53	29.351
503.88	29.466
504.23	29.442
504.58	29.425
504.92	29.546
505.27	29.590
505.62	29.613
505.97	29.637
506.31	29.680
506.66	29.683
507.01	29.714
507.36	29.723
507.70	29.679
508.05	29.718
508.40	29.735
508.74	29.786
509.09	29.724
509.44	29.678
509.79	29.640
510.13	29.592
510.48	29.662
510.83	29.580
511.17	29.559
511.52	29.480
511.87	29.514
512.21	29.507
512.56	29.626
512.91	29.511
513.25	29.570
513.60	29.578
513.95	29.632
514.29	29.699
514.64	29.709
514.98	29.773
515.33	29.769
515.68	29.851
516.02	29.895
516.37	29.882
516.72	29.912
517.06	29.980
517.41	29.979
517.75	30.015
518.10	30.056
518.45	30.019
518.79	30.159
519.14	30.256
519.48	30.213
519.83	30.129
520.18	30.161
520.52	30.251
520.87	30.242
521.21	30.306
521.56	30.270
521.90	30.281
522.25	30.306
522.60	30.352
522.94	30.341
523.29	30.276
523.63	30.346
523.98	30.323
524.32	30.304
524.67	30.308
525.01	30.234
525.36	30.200
525.70	30.193
526.05	30.159
526.39	30.069
526.74	30.112
527.08	30.025
527.43	29.982
527.77	29.890
528.12	29.875
528.46	29.762
528.81	29.677
529.15	29.618
529.50	29.547
529.84	29.509
530.19	29.395
530.53	29.255
530.88	29.154
531.22	29.009
531.57	28.897
531.91	28.773
532.26	28.666
532.60	28.555
532.94	28.449
533.29	28.177
533.63	28.029
533.98	27.850
534.32	27.749
534.67	27.499
535.01	27.314
535.35	27.116
535.70	26.962
536.04	26.726
536.39	26.558
536.73	26.306
537.07	26.154
537.42	25.951
537.76	25.676
538.11	25.528
538.45	25.289
538.79	25.093
539.14	24.846
539.48	24.711
539.82	24.532
540.17	24.310
540.51	24.134
540.85	23.960
541.20	23.777
541.54	23.594
541.89	23.430
542.23	23.342
542.57	23.168
542.92	23.090
543.26	22.977
543.60	22.878
543.94	22.807
544.29	22.805
544.63	22.693
544.97	22.662
545.32	22.602
545.66	22.602
546.00	22.588
546.35	22.540
546.69	22.618
547.03	22.564
547.37	22.657
547.72	22.662
548.06	22.717
548.40	22.679
548.75	22.761
549.09	22.780
549.43	22.803
549.77	22.958
550.12	22.957
550.46	23.090
550.80	23.175
551.14	23.304
551.49	23.378
551.83	23.596
552.17	23.716
552.51	23.775
552.85	23.963
553.20	24.100
553.54	24.307
553.88	24.505
554.22	24.559
554.56	24.861
554.91	25.090
555.25	25.338
555.59	25.465
555.93	25.723
556.27	25.978
556.62	26.159
556.96	26.458
557.30	26.645
557.64	26.865
557.98	27.180
558.32	27.375
558.67	27.663
559.01	27.813
559.35	28.115
559.69	28.359
560.03	28.640
560.37	28.824
560.71	29.102
561.05	29.254
561.40	29.430
561.74	29.678
562.08	29.929
562.42	30.145
562.76	30.291
563.10	30.541
563.44	30.702
563.78	30.862
564.12	31.041
564.46	31.231
564.81	31.357
565.15	31.516
565.49	31.683
565.83	31.764
566.17	31.859
566.51	31.940
566.85	31.980
567.19	32.037
567.53	32.164
567.87	32.314
568.21	32.354
568.55	32.373
568.89	32.438
569.23	32.454
569.57	32.433
569.91	32.459
570.25	32.374
570.59	32.367
570.93	32.404
571.27	32.388
571.61	32.326
571.95	32.305
572.29	32.216
572.63	32.166
572.97	32.119
573.31	32.029
573.65	32.012
573.99	31.945
574.33	31.819
574.67	31.715
575.01	31.546
575.35	31.496
575.69	31.352
576.03	31.316
576.37	31.090
576.71	30.991
577.05	30.882
577.39	30.720
577.73	30.594
578.06	30.438
578.40	30.158
578.74	30.057
579.08	29.884
579.42	29.727
579.76	29.535
580.10	29.332
580.44	29.153
580.78	28.954
581.12	28.703
581.45	28.594
581.79	28.426
582.13	28.156
582.47	28.030
582.81	27.804
583.15	27.622
583.49	27.517
583.83	27.296
584.16	27.150
584.50	26.978
584.84	26.882
585.18	26.626
585.52	26.487
585.86	26.382
586.19	26.201
586.53	26.156
586.87	26.027
587.21	25.727
587.55	25.603
587.88	25.533
588.22	25.304
588.56	25.135
588.90	24.860
589.24	24.754
589.57	24.562
589.91	24.391
590.25	24.185
590.59	23.929
590.92	23.742
591.26	23.563
591.60	23.287
591.94	23.078
592.27	22.836
592.61	22.548
592.95	22.284
593.29	22.086
593.62	21.752
593.96	21.483
594.30	21.214
594.64	20.874
594.97	20.544
595.31	20.199
595.65	19.829
595.98	19.440
596.32	19.038
596.66	18.623
597.00	18.237
597.33	17.771
597.67	17.351
598.01	16.842
598.34	16.451
598.68	15.994
599.02	15.542
599.35	15.146
599.69	14.731
600.03	14.352
600.36	13.993
600.70	13.660
601.03	13.293
601.37	12.971
601.71	12.755
602.04	12.453
602.38	12.177
602.72	11.882
603.05	11.645
603.39	11.379
603.72	11.128
604.06	10.877
604.40	10.625
604.73	10.350
605.07	10.065
605.40	9.824
605.74	9.554
606.08	9.230
606.41	9.020
606.75	8.751
607.08	8.477
607.42	8.228
607.75	7.961
608.09	7.670
608.42	7.414
608.76	7.139
609.10	6.886
609.43	6.603
609.77	6.369
610.10	6.069
610.44	5.855
610.77	5.583
611.11	5.333
611.44	5.095
611.78	4.869
612.11	4.653
612.45	4.438
612.78	4.223
613.12	4.024
613.45	3.806
613.79	3.608
614.12	3.436
614.46	3.234
614.79	3.096
615.13	2.921
615.46	2.782
615.79	2.624
616.13	2.493
616.46	2.381
616.80	2.270
617.13	2.177
617.47	2.067
617.80	1.989
618.13	1.907
618.47	1.792
618.80	1.763
619.14	1.674
619.47	1.609
619.81	1.551
620.14	1.484
620.47	1.422
620.81	1.360
621.14	1.327
621.47	1.278
621.81	1.230
622.14	1.187
622.48	1.143
622.81	1.097
623.14	1.070
623.48	1.040
623.81	1.032
624.14	0.981
624.48	0.973
624.81	0.951
625.14	0.935
625.48	0.913
625.81	0.884
626.14	0.903
626.48	0.893
626.81	0.875
627.14	0.872
627.48	0.885
627.81	0.897
628.14	0.932
628.47	0.892
628.81	0.951
629.14	0.979
629.47	1.002
629.81	1.064
630.14	1.069
630.47	1.132
630.80	1.175
631.14	1.239
631.47	1.259
631.80	1.354
632.13	1.417
632.47	1.511
632.80	1.607
633.13	1.694
633.46	1.801
633.79	1.925
634.13	2.064
634.46	2.193
634.79	2.315
635.12	2.425
635.45	2.602
635.79	2.768
636.12	2.946
636.45	3.125
636.78	3.333
637.11	3.490
637.45	3.740
637.78	3.961
638.11	4.194
638.44	4.369
638.77	4.640
639.10	4.864
639.44	5.115
639.77	5.348
640.10	5.625
640.43	5.904
640.76	6.127
641.09	6.387
641.42	6.666
641.75	6.924
642.08	7.208
642.42	7.467
642.75	7.696
643.08	7.972
643.41	8.209
643.74	8.496
644.07	8.750
644.40	8.949
644.73	9.226
645.06	9.493
645.39	9.707
645.72	9.886
646.05	10.139
646.38	10.309
646.72	10.553
647.05	10.790
647.38	10.974
647.71	11.150
648.04	11.291
648.37	11.445
648.70	11.557
649.03	11.759
649.36	11.867
649.69	11.979
650.02	12.058
650.35	12.147
650.68	12.189
651.01	12.185
651.34	12.218
651.67	12.186
652.00	12.183
652.33	12.105
652.66	12.039
652.99	11.950
653.31	11.824
653.64	11.664
653.97	11.525
654.30	11.325
654.63	11.125
654.96	10.904
655.29	10.674
655.62	10.412
655.95	10.142
656.28	9.870
656.61	9.600
656.94	9.316
657.27	9.057
657.60	8.777
657.92	8.503
658.25	8.236
658.58	7.989
658.91	7.781
659.24	7.554
659.57	7.326
659.90	7.123
660.23	6.903
660.55	6.712
660.88	6.515
661.21	6.354
661.54	6.146
661.87	5.995
662.20	5.829
662.52	5.618
662.85	5.487
663.18	5.308
663.51	5.168
663.84	5.044
664.16	4.878
664.49	4.725
664.82	4.586
665.15	4.457
665.48	4.340
665.80	4.205
666.13	4.069
666.46	3.985
666.79	3.899
667.12	3.751
667.44	3.676
667.77	3.564
668.10	3.473
668.43	3.377
668.75	3.318
669.08	3.218
669.41	3.179
669.73	3.094
670.06	3.022
670.39	2.953
670.72	2.918
671.04	2.831
671.37	2.813
671.70	2.756
672.02	2.697
672.35	2.680
672.68	2.590
673.00	2.585
673.33	2.565
673.66	2.525
673.98	2.496
674.31	2.450
674.64	2.426
674.96	2.408
675.29	2.427
675.62	2.374
675.94	2.332
676.27	2.348
676.60	2.307
676.92	2.308
677.25	2.327
677.58	2.303
677.90	2.274
678.23	2.268
678.55	2.240
678.88	2.256
679.21	2.231
679.53	2.218
679.86	2.198
680.18	2.206
680.51	2.139
680.83	2.164
681.16	2.132
681.49	2.126
681.81	2.079
682.14	2.087
682.46	2.048
682.79	2.041
683.11	2.035
683.44	1.973
683.76	1.948
684.09	1.965
684.41	1.910
684.74	1.900
685.06	1.898
685.39	1.909
685.71	1.864
686.04	1.878
686.36	1.844
686.69	1.836
687.01	1.771
687.34	1.787
687.66	1.749
687.99	1.766
688.31	1.730
688.64	1.721
688.96	1.697
689.29	1.690
689.61	1.635
689.93	1.640
690.26	1.621
690.58	1.549
690.91	1.527
691.23	1.456
691.56	1.454
691.88	1.438
692.20	1.369
692.53	1.325
692.85	1.288
693.18	1.204
693.50	1.222
693.82	1.155
694.15	1.061
694.47	1.039
694.79	0.964
695.12	0.943
695.44	0.834
695.76	0.795
696.09	0.754
696.41	0.699
696.73	0.647
697.06	0.553
697.38	0.500
697.70	0.429
698.03	0.390
698.35	0.323
698.67	0.304
699.00	0.222
699.32	0.186
699.64	0.116
699.97	0.094
700.29	0.051
700.61	0.007
700.93	-0.010
701.26	-0.055
701.58	-0.073
701.90	-0.103
702.22	-0.151
702.55	-0.191
702.87	-0.211
703.19	-0.240
703.51	-0.265
703.84	-0.263
704.16	-0.249
704.48	-0.316
704.80	-0.272
705.13	-0.334
705.45	-0.333
705.77	-0.346
706.09	-0.371
706.41	-0.408
706.74	-0.411
707.06	-0.421
707.38	-0.398
707.70	-0.459
708.02	-0.440
708.34	-0.471
708.67	-0.453
708.99	-0.480
709.31	-0.457
709.63	-0.444
709.95	-0.513
710.27	-0.513
710.59	-0.520
710.92	-0.505
711.24	-0.522
711.56	-0.557
711.88	-0.506
712.20	-0.531
712.52	-0.553
712.84	-0.520
713.16	-0.536
713.48	-0.541
713.80	-0.565
714.12	-0.548
714.45	-0.530
714.77	-0.562
715.09	-0.590
715.41	-0.610
715.73	-0.643
716.05	-0.611
716.37	-0.621
716.69	-0.617
717.01	-0.643
717.33	-0.604
717.65	-0.647
717.97	-0.664
718.29	-0.697
718.61	-0.665
718.93	-0.641
719.25	-0.726
719.57	-0.676
719.89	-0.742
720.21	-0.767
720.53	-0.789
720.85	-0.713
721.17	-0.776
721.49	-0.789
721.81	-0.881
722.13	-0.799
722.45	-0.860
722.77	-0.853
723.09	-0.859
723.41	-0.845
723.72	-0.890
724.04	-0.882
724.36	-0.924
724.68	-0.913
725.00	-0.924
725.32	-0.930
725.64	-0.969
725.96	-1.034
726.28	-0.989
726.60	-0.990
726.91	-1.032
727.23	-1.060
727.55	-1.137
727.87	-1.102
728.19	-1.119
728.51	-1.145
728.83	-1.225
729.14	-1.157
729.46	-1.088
729.78	-1.151
730.10	-1.168
730.42	-1.116
730.74	-1.147
731.05	-1.269
731.37	-1.254
731.69	-1.261
732.01	-1.218
732.33	-1.302
732.64	-1.215
732.96	-1.332
733.28	-1.311
733.60	-1.285
733.92	-1.256
734.23	-1.291
734.55	-1.299
734.87	-1.272
735.19	-1.284
735.50	-1.239
735.82	-1.361
736.14	-1.297
736.45	-1.270
736.77	-1.329
737.09	-1.365
737.41	-1.287
737.72	-1.388
738.04	-1.358
738.36	-1.243
738.67	-1.280
738.99	-1.251
739.31	-1.354
739.63	-1.367
739.94	-1.351
740.26	-1.185
740.58	-1.314
740.89	-1.236
741.21	-1.352
741.52	-1.282
741.84	-1.206
742.16	-1.232
742.47	-1.200
742.79	-1.236
743.11	-1.211
743.42	-1.125
743.74	-1.074
744.05	-1.167
744.37	-1.241
744.69	-1.140
745.00	-1.232
745.32	-1.071
745.63	-1.141
745.95	-1.232
746.27	-1.119
746.58	-1.163
746.90	-1.157
747.21	-1.126
747.53	-1.155
747.84	-1.149
748.16	-1.098
748.47	-1.032
748.79	-1.170
749.10	-1.137
749.42	-1.100
749.74	-1.074
750.05	-1.127
750.37	-1.072
750.68	-1.015
751.00	-1.133
751.31	-1.085
751.62	-0.979
751.94	-1.010
752.25	-0.979
752.57	-0.983
752.88	-1.012
753.20	-0.972
753.51	-1.018
753.83	-0.981
754.14	-0.914
754.46	-0.896
754.77	-0.972
755.08	-0.966
755.40	-1.035
755.71	-1.025
756.03	-0.955
756.34	-1.018
756.66	-0.865
756.97	-0.947
757.28	-0.967
757.60	-0.901
757.91	-0.994
758.22	-0.901
758.54	-0.890
758.85	-0.950
759.17	-0.855
759.48	-0.911
759.79	-0.856
760.11	-0.924
760.42	-0.953
760.73	-0.915
761.05	-0.901
761.36	-0.856
761.67	-0.905
761.99	-0.914
762.30	-0.914
762.61	-0.896
762.92	-0.929
763.24	-0.829
763.55	-0.893
763.86	-0.852
764.18	-0.841
764.49	-0.880
764.80	-0.877
765.11	-0.801
765.43	-0.905
765.74	-0.872
766.05	-0.864
766.36	-0.830
766.68	-0.852
766.99	-0.856
767.30	-0.831
767.61	-0.864
767.93	-0.826
768.24	-0.846
768.55	-0.862
768.86	-0.811
769.17	-0.898
769.49	-0.863
769.80	-0.846
770.11	-0.933
770.42	-0.906
770.73	-0.856
771.04	-0.824
771.36	-0.865
771.67	-0.857
771.98	-0.880
772.29	-0.835
772.60	-0.870
772.91	-0.886
773.22	-0.835
773.54	-0.858
773.85	-0.881
774.16	-0.885
774.47	-0.932
774.78	-0.928
775.09	-0.858
775.40	-0.883
775.71	-0.900
776.02	-0.878
776.33	-0.904
776.64	-0.938
776.96	-0.908
777.27	-0.999
777.58	-0.929
777.89	-0.818
778.20	-0.963
778.51	-0.964
778.82	-1.026
779.13	-0.968
779.44	-0.984
779.75	-0.976
780.06	-1.005
780.37	-0.996
780.68	-0.969
780.99	-0.999
781.30	-0.967
781.61	-0.982
781.92	-1.063
782.23	-1.075
782.54	-1.072
782.85	-1.149
783.16	-1.057
783.47	-1.032
783.78	-1.116
784.08	-1.093
784.39	-1.061
784.70	-1.088
785.01	-1.168
785.32	-1.136
785.63	-1.143
785.94	-1.134
786.25	-1.138
786.56	-1.204
786.87	-1.159
787.18	-1.150
787.48	-1.226
787.79	-1.155
788.10	-1.214
788.41	-1.209
788.72	-1.225
789.03	-1.241
789.34	-1.241
789.64	-1.227
789.95	-1.244
790.26	-1.384
790.57	-1.192
790.88	-1.317
791.19	-1.293
791.49	-1.426
791.80	-1.369
792.11	-1.233
792.42	-1.444
792.73	-1.384
793.03	-1.362
793.34	-1.454
793.65	-1.491
793.96	-1.460
794.27	-1.531
794.57	-1.467
794.88	-1.446
795.19	-1.381
795.50	-1.602
795.80	-1.578
796.11	-1.486
796.42	-1.592
796.72	-1.695
797.03	-1.533
797.34	-1.637
797.65	-1.691
797.95	-1.708
798.26	-1.598
798.57	-1.629
798.87	-1.688
799.18	-1.724
799.49	-1.883
799.79	-1.763
800.10	-1.818
800.41	-1.947
800.71	-1.878
801.02	-1.847
801.33	-1.810
801.63	-1.856
801.94	-1.900
802.24	-2.043
802.55	-2.085
802.86	-2.089
803.16	-2.028
803.47	-2.060
803.77	-2.084
804.08	-2.087
804.39	-2.169
804.69	-2.074
805.00	-2.115
805.30	-2.183
805.61	-2.118
805.91	-2.138
806.22	-2.281
806.53	-2.162
806.83	-2.000
807.14	-2.122
807.44	-2.204
807.75	-2.332
808.05	-2.243
808.36	-2.494
808.66	-2.410
808.97	-2.347
809.27	-2.443
809.58	-2.297
809.88	-2.493
810.19	-2.619
810.49	-2.498
810.80	-2.449
811.10	-2.509
811.41	-2.477
811.71	-2.715
812.01	-2.615
812.32	-2.852
812.62	-2.709
812.93	-3.014
813.23	-2.776
813.54	-2.874
813.84	-2.856
814.14	-2.964
814.45	-3.154
814.75	-2.988
815.06	-3.012
815.36	-2.971
815.66	-3.122
815.97	-3.219
816.27	-3.245
816.58	-3.248
816.88	-3.166
817.18	-3.253
817.49	-3.414
817.79	-3.079
818.09	-3.379
818.40	-3.575
818.70	-3.602
819.00	-3.478
819.31	-3.369
819.61	-3.739
819.91	-3.553
820.21	-3.685
820.52	-3.924
820.82	-3.879
821.12	-3.859
821.43	-3.874
821.73	-4.071
822.03	-4.057
822.33	-3.921
822.64	-3.960
822.94	-4.156
823.24	-4.214
823.54	-4.279
823.85	-4.238
824.15	-4.685
824.45	-4.099
824.75	-4.576
825.05	-4.511
825.36	-4.603
825.66	-4.791
825.96	-5.145
826.26	-4.738
826.56	-4.893
826.87	-4.869
827.17	-4.962
827.47	-5.128
827.77	-5.211
828.07	-5.164
828.37	-5.493
828.67	-5.356
828.98	-5.796
829.28	-5.988
829.58	-5.985
829.88	-5.883
830.18	-6.057
830.48	-6.130
830.78	-6.355
831.08	-6.393
831.38	-6.577
831.69	-6.560
831.99	-7.284
832.29	-6.504
832.59	-7.151
832.89	-7.209
833.19	-7.762
833.49	-7.332
833.79	-7.788
834.09	-7.474
834.39	-7.686
834.69	-7.323
834.99	-8.135
835.29	-8.189
835.59	-8.812
835.89	-8.411
836.19	-8.780
836.49	-9.253
836.79	-9.616
837.09	-9.468
837.39	-10.638
837.69	-10.448
837.99	-10.495
838.29	-10.709
838.59	-10.701
838.89	-11.092
839.19	-11.882
839.49	-10.263
839.79	-11.817
840.09	-13.049
840.39	-12.345
840.68	-11.799
840.98	-14.293
841.28	-13.014
841.58	-13.344
841.88	-14.596
842.18	-14.396
842.48	-13.628
842.78	-14.943
843.08	-15.424
843.37	-15.680
843.67	-14.756
843.97	-16.247
844.27	-16.785
844.57	-17.691
844.87	-18.781
845.16	-17.244
845.46	-19.165
845.76	-18.358
846.06	-20.846
846.36	-20.402
846.66	-18.895
846.95	-20.743
847.25	-22.063
847.55	-22.218
847.85	-22.012
848.14	-23.951
848.44	-24.142
848.74	-24.515
849.04	-25.935
849.33	-24.854
849.63	-25.585
849.93	-26.983
850.23	-29.814
850.52	-28.695
850.82	-28.111
851.12	-30.706
851.42	-32.486
851.71	-31.022
852.01	-31.542
852.31	-34.521
852.60	-32.896
852.90	-37.172
853.20	-39.162
853.49	-37.574
853.79	-39.613
854.09	-37.376
854.38	-38.486
854.68	-41.596
854.98	-39.297
855.27	-42.792
855.57	-40.799
855.86	-41.043
856.16	-42.046
856.46	-43.078
856.75	-43.797
857.05	-44.286
857.34	-48.384
857.64	-44.971
857.94	-44.862
858.23	-47.536
858.53	-48.598
858.82	-54.116
859.12	-46.951
859.41	-45.384
859.71	-46.943
860.01	-51.209
860.30	-48.513
860.60	-48.762
860.89	-47.615
861.19	-46.899
861.48	-49.266
861.78	-49.154
862.07	-50.945
862.37	-46.100
862.66	-47.177
862.96	-48.680
863.25	-51.130
863.55	-49.527
863.84	-48.363
864.13	-48.754
864.43	-52.687
864.72	-47.035
865.02	-50.826
865.31	-51.119
865.61	-48.035
865.90	-48.938
866.19	-50.227
866.49	-50.701
866.78	-49.977
867.08	-49.821
867.37	-50.816
867.66	-50.876
867.96	-51.603
868.25	-47.238
868.55	-46.272
868.84	-55.281
869.13	-47.685
869.43	-55.166
869.72	-48.463
870.01	-52.182
870.31	-48.168
870.60	-54.625
870.89	-54.646
871.19	-55.021
871.48	-48.904
871.77	-46.381
872.07	-49.629
872.36	-51.855
872.65	-52.127
872.94	-49.369
873.24	-49.953
873.53	-53.722
873.82	-50.839
874.11	-48.770
874.41	-52.609
874.70	-48.675
>>>>>End Processed Spectral Data<<<<<
