SpectraSuite Data File
++++++++++++++++++++++++++++++++++++
Date: Mon Apr 20 20:46:32 BST 2015
User: mpfc3
Dark Spectrum Present: Yes
Reference Spectrum Present: Yes
Number of Sampled Component Spectra: 1
Spectrometers: USB2E3636
Integration Time (usec): 30000 (USB2E3636)
Spectra Averaged: 100 (USB2E3636)
Boxcar Smoothing: 0 (USB2E3636)
Correct for Electrical Dark: No (USB2E3636)
Strobe/Lamp Enabled: No (USB2E3636)
Correct for Detector Non-linearity: No (USB2E3636)
Correct for Stray Light: No (USB2E3636)
Number of Pixels in Processed Spectrum: 2048
>>>>>Begin Processed Spectral Data<<<<<
180.28	0.000
180.65	265.055
181.02	236.538
181.39	239.235
181.77	253.812
182.14	255.338
182.51	262.192
182.88	265.265
183.25	258.811
183.63	237.002
184.00	246.089
184.37	236.646
184.74	245.291
185.11	263.781
185.49	269.767
185.86	218.250
186.23	281.948
186.60	260.532
186.97	270.413
187.35	252.826
187.72	273.684
188.09	218.416
188.46	245.397
188.83	223.320
189.20	-2618.605
189.58	-67.437
189.95	-66.123
190.32	-69.705
190.69	-60.881
191.06	-70.596
191.43	-72.416
191.81	-64.964
192.18	-67.154
192.55	-70.468
192.92	-62.850
193.29	-61.492
193.66	-66.580
194.03	-65.793
194.41	-64.966
194.78	-71.369
195.15	-66.802
195.52	-65.415
195.89	-68.763
196.26	-70.027
196.63	-72.555
197.01	-63.981
197.38	-71.797
197.75	-61.871
198.12	-63.552
198.49	-67.030
198.86	-56.628
199.23	-71.923
199.60	-64.729
199.98	-72.640
200.35	-64.148
200.72	-66.712
201.09	-75.090
201.46	-73.375
201.83	-71.938
202.20	-64.286
202.57	-74.021
202.94	-70.686
203.31	-63.992
203.69	-67.164
204.06	-63.984
204.43	-68.392
204.80	-72.483
205.17	-72.442
205.54	-73.103
205.91	-73.889
206.28	-70.816
206.65	-75.036
207.02	-74.982
207.39	-69.073
207.76	-71.530
208.14	-70.792
208.51	-66.463
208.88	-70.113
209.25	-66.836
209.62	-76.648
209.99	-73.568
210.36	-70.737
210.73	-79.424
211.10	-80.737
211.47	-72.443
211.84	-66.784
212.21	-76.577
212.58	-76.335
212.95	-78.123
213.32	-76.422
213.69	-70.297
214.06	-68.768
214.43	-72.813
214.80	-81.712
215.17	-81.662
215.55	-77.596
215.92	-78.412
216.29	-71.470
216.66	-70.276
217.03	-78.956
217.40	-75.168
217.77	-75.926
218.14	-82.820
218.51	-82.059
218.88	-81.156
219.25	-69.203
219.62	-78.805
219.99	-85.226
220.36	-76.502
220.73	-78.744
221.10	-74.102
221.47	-80.709
221.84	-91.264
222.21	-93.503
222.58	-88.026
222.95	-83.620
223.32	-82.478
223.69	-82.160
224.06	-81.675
224.43	-76.807
224.80	-78.972
225.17	-94.415
225.54	-80.387
225.91	-78.230
226.27	-67.221
226.64	-86.041
227.01	-82.566
227.38	-94.892
227.75	-90.035
228.12	-81.601
228.49	-86.712
228.86	-88.820
229.23	-92.037
229.60	-88.178
229.97	-86.550
230.34	-86.248
230.71	-91.704
231.08	-96.403
231.45	-88.522
231.82	-82.918
232.19	-94.283
232.56	-91.051
232.93	-100.375
233.30	-95.098
233.66	-94.898
234.03	-91.527
234.40	-84.771
234.77	-87.040
235.14	-90.984
235.51	-96.343
235.88	-103.263
236.25	-97.029
236.62	-90.018
236.99	-95.941
237.36	-92.280
237.73	-96.848
238.09	-93.862
238.46	-93.266
238.83	-92.105
239.20	-98.984
239.57	-89.344
239.94	-93.928
240.31	-87.649
240.68	-93.596
241.05	-110.765
241.41	-95.636
241.78	-106.046
242.15	-96.384
242.52	-98.860
242.89	-109.043
243.26	-102.015
243.63	-84.107
244.00	-110.385
244.36	-86.704
244.73	-97.096
245.10	-98.489
245.47	-90.270
245.84	-94.455
246.21	-104.183
246.58	-97.751
246.94	-96.819
247.31	-107.754
247.68	-102.467
248.05	-106.834
248.42	-110.352
248.79	-110.438
249.15	-108.802
249.52	-105.005
249.89	-107.158
250.26	-103.700
250.63	-110.699
251.00	-106.410
251.36	-99.398
251.73	-103.539
252.10	-111.111
252.47	-112.223
252.84	-108.936
253.20	-106.141
253.57	-100.000
253.94	-112.292
254.31	-95.382
254.68	-108.448
255.05	-107.983
255.41	-102.396
255.78	-113.012
256.15	-103.434
256.52	-107.256
256.88	-111.170
257.25	-118.454
257.62	-110.054
257.99	-107.963
258.36	-109.052
258.72	-119.132
259.09	-114.807
259.46	-135.060
259.83	-112.031
260.19	-102.947
260.56	-118.246
260.93	-111.479
261.30	-113.740
261.67	-133.708
262.03	-112.177
262.40	-110.776
262.77	-120.291
263.14	-126.316
263.50	-112.225
263.87	-125.772
264.24	-111.296
264.61	-124.567
264.97	-116.049
265.34	-113.097
265.71	-119.448
266.07	-110.773
266.44	-123.630
266.81	-124.740
267.18	-111.136
267.54	-114.769
267.91	-115.982
268.28	-122.368
268.64	-113.843
269.01	-104.496
269.38	-122.497
269.75	-123.687
270.11	-135.294
270.48	-124.940
270.85	-105.451
271.21	-118.692
271.58	-121.591
271.95	-120.810
272.32	-111.272
272.68	-110.234
273.05	-126.818
273.42	-117.667
273.78	-111.758
274.15	-125.860
274.52	-110.268
274.88	-122.626
275.25	-118.673
275.62	-108.571
275.98	-108.278
276.35	-108.452
276.72	-107.320
277.08	-121.321
277.45	-114.667
277.82	-120.140
278.18	-109.372
278.55	-117.297
278.92	-116.549
279.28	-104.901
279.65	-117.249
280.01	-120.541
280.38	-118.243
280.75	-120.516
281.11	-121.580
281.48	-118.213
281.85	-126.683
282.21	-123.458
282.58	-113.972
282.95	-125.852
283.31	-119.930
283.68	-118.046
284.04	-99.277
284.41	-125.943
284.78	-116.743
285.14	-111.711
285.51	-109.539
285.87	-114.027
286.24	-113.326
286.61	-126.284
286.97	-111.388
287.34	-135.238
287.70	-120.917
288.07	-105.222
288.44	-119.911
288.80	-118.591
289.17	-113.155
289.53	-109.041
289.90	-112.955
290.26	-129.820
290.63	-104.008
291.00	-128.242
291.36	-103.365
291.73	-100.415
292.09	-109.702
292.46	-108.259
292.82	-113.393
293.19	-116.533
293.56	-116.804
293.92	-112.279
294.29	-117.744
294.65	-110.764
295.02	-115.566
295.38	-126.969
295.75	-107.273
296.11	-109.241
296.48	-102.578
296.84	-114.351
297.21	-131.925
297.57	-119.490
297.94	-119.317
298.30	-112.975
298.67	-110.265
299.04	-125.647
299.40	-107.816
299.77	-112.621
300.13	-117.087
300.50	-109.053
300.86	-114.944
301.23	-104.834
301.59	-101.816
301.96	-129.520
302.32	-117.486
302.69	-116.336
303.05	-99.490
303.42	-105.491
303.78	-102.857
304.14	-104.782
304.51	-105.521
304.87	-122.299
305.24	-94.651
305.60	-100.100
305.97	-92.574
306.33	-102.880
306.70	-87.571
307.06	-90.926
307.43	-93.207
307.79	-102.477
308.16	-90.029
308.52	-104.325
308.88	-119.420
309.25	-96.000
309.61	-95.035
309.98	-108.792
310.34	-105.065
310.71	-98.427
311.07	-97.817
311.44	-102.064
311.80	-92.989
312.16	-97.251
312.53	-99.317
312.89	-96.214
313.26	-92.125
313.62	-97.544
313.98	-88.525
314.35	-100.939
314.71	-94.884
315.08	-98.274
315.44	-100.574
315.80	-95.211
316.17	-87.648
316.53	-85.411
316.90	-84.602
317.26	-101.139
317.62	-86.099
317.99	-83.616
318.35	-83.102
318.72	-81.061
319.08	-82.013
319.44	-94.293
319.81	-79.299
320.17	-78.043
320.53	-84.228
320.90	-73.165
321.26	-72.490
321.62	-73.281
321.99	-81.216
322.35	-72.795
322.72	-74.548
323.08	-73.112
323.44	-72.102
323.81	-72.802
324.17	-77.328
324.53	-75.345
324.90	-71.429
325.26	-70.446
325.62	-68.091
325.99	-80.874
326.35	-65.895
326.71	-71.507
327.08	-56.620
327.44	-67.550
327.80	-63.394
328.16	-64.792
328.53	-68.484
328.89	-73.160
329.25	-69.236
329.62	-51.385
329.98	-49.895
330.34	-59.334
330.71	-57.383
331.07	-57.448
331.43	-51.715
331.79	-48.262
332.16	-54.188
332.52	-49.446
332.88	-54.770
333.24	-51.528
333.61	-51.145
333.97	-48.384
334.33	-49.552
334.70	-46.368
335.06	-47.715
335.42	-43.345
335.78	-42.577
336.15	-41.232
336.51	-43.727
336.87	-46.211
337.23	-41.817
337.60	-40.712
337.96	-44.406
338.32	-42.814
338.68	-42.030
339.04	-38.337
339.41	-38.851
339.77	-35.969
340.13	-38.149
340.49	-39.553
340.86	-35.915
341.22	-35.497
341.58	-34.615
341.94	-33.945
342.30	-37.194
342.67	-33.970
343.03	-33.357
343.39	-31.817
343.75	-31.405
344.11	-31.590
344.48	-31.314
344.84	-30.063
345.20	-30.701
345.56	-33.258
345.92	-30.208
346.28	-29.268
346.65	-29.853
347.01	-29.523
347.37	-27.961
347.73	-26.232
348.09	-27.747
348.45	-24.270
348.82	-26.157
349.18	-26.086
349.54	-23.812
349.90	-24.810
350.26	-26.213
350.62	-24.429
350.98	-22.566
351.35	-20.342
351.71	-23.459
352.07	-22.393
352.43	-21.860
352.79	-19.239
353.15	-22.819
353.51	-20.168
353.87	-21.488
354.24	-20.684
354.60	-20.392
354.96	-19.205
355.32	-21.191
355.68	-19.506
356.04	-18.322
356.40	-18.550
356.76	-19.633
357.12	-17.814
357.48	-17.482
357.85	-17.525
358.21	-16.843
358.57	-16.676
358.93	-18.057
359.29	-17.397
359.65	-17.473
360.01	-14.913
360.37	-16.274
360.73	-16.155
361.09	-14.941
361.45	-15.377
361.81	-14.808
362.17	-15.604
362.53	-14.032
362.89	-14.081
363.25	-14.642
363.62	-14.166
363.98	-14.643
364.34	-15.619
364.70	-13.336
365.06	-13.147
365.42	-12.814
365.78	-13.063
366.14	-12.557
366.50	-12.132
366.86	-11.393
367.22	-12.084
367.58	-11.826
367.94	-11.528
368.30	-10.624
368.66	-10.498
369.02	-10.341
369.38	-10.818
369.74	-10.413
370.10	-10.764
370.46	-10.748
370.82	-10.706
371.18	-10.969
371.54	-9.486
371.90	-10.432
372.26	-10.195
372.62	-8.795
372.98	-9.773
373.33	-8.868
373.69	-8.865
374.05	-9.544
374.41	-8.570
374.77	-8.072
375.13	-8.916
375.49	-7.525
375.85	-7.367
376.21	-7.293
376.57	-8.188
376.93	-7.948
377.29	-7.728
377.65	-7.548
378.01	-7.458
378.37	-6.978
378.73	-6.533
379.08	-6.713
379.44	-6.310
379.80	-6.185
380.16	-6.791
380.52	-6.756
380.88	-5.896
381.24	-6.190
381.60	-6.127
381.96	-5.337
382.32	-5.692
382.67	-5.858
383.03	-5.589
383.39	-5.177
383.75	-4.749
384.11	-4.356
384.47	-4.851
384.83	-4.602
385.19	-3.990
385.54	-4.260
385.90	-3.902
386.26	-3.986
386.62	-4.091
386.98	-3.120
387.34	-3.066
387.70	-3.503
388.05	-3.555
388.41	-3.074
388.77	-2.189
389.13	-2.421
389.49	-2.161
389.85	-1.960
390.20	-2.281
390.56	-2.388
390.92	-2.081
391.28	-1.549
391.64	-1.682
391.99	-1.635
392.35	-0.985
392.71	-0.994
393.07	-1.226
393.43	-0.808
393.78	-0.582
394.14	-0.673
394.50	-0.396
394.86	0.205
395.22	-0.476
395.57	0.097
395.93	0.570
396.29	0.571
396.65	0.729
397.00	0.868
397.36	1.154
397.72	0.648
398.08	1.252
398.43	1.502
398.79	1.819
399.15	2.065
399.51	2.266
399.86	2.404
400.22	2.200
400.58	2.315
400.94	2.318
401.29	2.857
401.65	2.903
402.01	2.974
402.37	3.256
402.72	3.543
403.08	3.456
403.44	3.549
403.79	3.941
404.15	4.019
404.51	4.044
404.86	4.315
405.22	4.477
405.58	4.488
405.94	4.593
406.29	4.920
406.65	5.141
407.01	5.366
407.36	5.471
407.72	5.488
408.08	5.484
408.43	5.657
408.79	6.014
409.15	6.021
409.50	6.336
409.86	6.469
410.22	6.496
410.57	6.773
410.93	6.835
411.29	7.099
411.64	7.013
412.00	7.268
412.35	7.585
412.71	7.361
413.07	8.105
413.42	7.517
413.78	8.107
414.14	8.044
414.49	8.279
414.85	8.302
415.20	8.413
415.56	8.506
415.92	9.040
416.27	9.184
416.63	9.262
416.98	9.294
417.34	9.486
417.70	9.560
418.05	9.592
418.41	9.823
418.76	10.011
419.12	10.265
419.47	10.127
419.83	10.374
420.19	10.639
420.54	10.789
420.90	10.621
421.25	10.780
421.61	11.146
421.96	10.974
422.32	11.245
422.67	11.413
423.03	11.455
423.39	11.699
423.74	11.792
424.10	11.864
424.45	11.879
424.81	11.928
425.16	12.124
425.52	12.445
425.87	12.356
426.23	12.571
426.58	12.816
426.94	12.960
427.29	12.990
427.65	13.065
428.00	13.233
428.36	13.535
428.71	13.366
429.07	13.594
429.42	13.922
429.78	13.914
430.13	14.193
430.49	14.086
430.84	14.233
431.19	14.530
431.55	14.269
431.90	14.509
432.26	14.595
432.61	14.774
432.97	14.959
433.32	15.121
433.68	15.213
434.03	15.360
434.39	15.540
434.74	15.527
435.09	15.517
435.45	15.753
435.80	15.937
436.16	15.889
436.51	15.994
436.86	16.139
437.22	16.406
437.57	16.373
437.93	16.497
438.28	16.563
438.63	16.734
438.99	16.822
439.34	16.957
439.70	17.025
440.05	17.205
440.40	17.182
440.76	17.226
441.11	17.438
441.47	17.466
441.82	17.585
442.17	17.666
442.53	17.764
442.88	17.845
443.23	17.956
443.59	18.101
443.94	18.149
444.29	18.239
444.65	18.417
445.00	18.488
445.35	18.597
445.71	18.777
446.06	18.758
446.41	18.902
446.77	18.963
447.12	18.975
447.47	19.096
447.83	19.331
448.18	19.530
448.53	19.365
448.89	19.483
449.24	19.612
449.59	19.665
449.94	19.774
450.30	19.927
450.65	19.953
451.00	20.024
451.36	20.279
451.71	20.205
452.06	20.278
452.41	20.445
452.77	20.495
453.12	20.656
453.47	20.768
453.82	20.860
454.18	20.926
454.53	20.869
454.88	21.042
455.23	21.174
455.59	21.307
455.94	21.368
456.29	21.532
456.64	21.622
457.00	21.756
457.35	21.836
457.70	21.857
458.05	22.016
458.40	22.062
458.76	22.265
459.11	22.353
459.46	22.276
459.81	22.472
460.16	22.643
460.52	22.737
460.87	22.719
461.22	22.861
461.57	22.910
461.92	22.964
462.28	22.990
462.63	23.251
462.98	23.235
463.33	23.415
463.68	23.527
464.03	23.630
464.38	23.684
464.74	23.802
465.09	23.753
465.44	23.842
465.79	23.904
466.14	23.959
466.49	24.263
466.84	24.228
467.20	24.287
467.55	24.451
467.90	24.490
468.25	24.754
468.60	24.708
468.95	24.587
469.30	24.683
469.65	24.719
470.00	24.856
470.36	24.999
470.71	24.956
471.06	24.990
471.41	25.116
471.76	25.112
472.11	25.204
472.46	25.157
472.81	25.288
473.16	25.372
473.51	25.427
473.86	25.447
474.21	25.505
474.56	25.507
474.91	25.569
475.26	25.537
475.62	25.627
475.97	25.576
476.32	25.647
476.67	25.698
477.02	25.539
477.37	25.716
477.72	25.830
478.07	25.730
478.42	25.707
478.77	25.752
479.12	25.792
479.47	25.740
479.82	25.791
480.17	25.820
480.52	25.831
480.87	25.824
481.22	25.850
481.57	25.788
481.92	25.793
482.27	25.855
482.62	25.933
482.97	25.872
483.32	25.906
483.67	25.923
484.02	25.898
484.36	25.912
484.71	25.920
485.06	26.026
485.41	26.019
485.76	26.041
486.11	26.060
486.46	26.104
486.81	26.203
487.16	26.254
487.51	26.191
487.86	26.316
488.21	26.336
488.56	26.366
488.91	26.466
489.25	26.509
489.60	26.583
489.95	26.613
490.30	26.650
490.65	26.827
491.00	26.826
491.35	26.968
491.70	26.895
492.05	27.039
492.39	27.163
492.74	27.224
493.09	27.249
493.44	27.345
493.79	27.430
494.14	27.475
494.49	27.563
494.83	27.628
495.18	27.642
495.53	27.733
495.88	27.886
496.23	28.041
496.58	27.976
496.92	28.119
497.27	28.220
497.62	28.262
497.97	28.363
498.32	28.410
498.67	28.515
499.01	28.656
499.36	28.657
499.71	28.721
500.06	28.798
500.41	28.859
500.75	28.910
501.10	28.972
501.45	28.968
501.80	28.972
502.14	29.189
502.49	29.181
502.84	29.246
503.19	29.336
503.53	29.406
503.88	29.359
504.23	29.367
504.58	29.461
504.92	29.585
505.27	29.565
505.62	29.603
505.97	29.573
506.31	29.680
506.66	29.701
507.01	29.687
507.36	29.662
507.70	29.741
508.05	29.738
508.40	29.681
508.74	29.722
509.09	29.759
509.44	29.633
509.79	29.620
510.13	29.649
510.48	29.642
510.83	29.557
511.17	29.466
511.52	29.487
511.87	29.512
512.21	29.524
512.56	29.536
512.91	29.522
513.25	29.562
513.60	29.551
513.95	29.655
514.29	29.637
514.64	29.662
514.98	29.783
515.33	29.753
515.68	29.821
516.02	29.837
516.37	29.824
516.72	29.888
517.06	29.962
517.41	30.004
517.75	30.069
518.10	30.046
518.45	30.058
518.79	30.087
519.14	30.178
519.48	30.173
519.83	30.187
520.18	30.200
520.52	30.195
520.87	30.209
521.21	30.256
521.56	30.239
521.90	30.192
522.25	30.326
522.60	30.294
522.94	30.344
523.29	30.224
523.63	30.274
523.98	30.314
524.32	30.252
524.67	30.284
525.01	30.192
525.36	30.184
525.70	30.165
526.05	30.079
526.39	30.067
526.74	30.019
527.08	30.029
527.43	29.958
527.77	29.900
528.12	29.836
528.46	29.743
528.81	29.710
529.15	29.591
529.50	29.520
529.84	29.401
530.19	29.296
530.53	29.196
530.88	29.118
531.22	29.007
531.57	28.792
531.91	28.744
532.26	28.624
532.60	28.490
532.94	28.349
533.29	28.155
533.63	28.066
533.98	27.802
534.32	27.684
534.67	27.552
535.01	27.312
535.35	27.108
535.70	26.943
536.04	26.698
536.39	26.487
536.73	26.262
537.07	26.057
537.42	25.873
537.76	25.686
538.11	25.465
538.45	25.279
538.79	25.072
539.14	24.841
539.48	24.704
539.82	24.473
540.17	24.301
540.51	24.099
540.85	23.974
541.20	23.749
541.54	23.556
541.89	23.505
542.23	23.309
542.57	23.179
542.92	23.063
543.26	22.952
543.60	22.864
543.94	22.816
544.29	22.759
544.63	22.669
544.97	22.620
545.32	22.571
545.66	22.575
546.00	22.587
546.35	22.537
546.69	22.605
547.03	22.533
547.37	22.641
547.72	22.618
548.06	22.664
548.40	22.703
548.75	22.725
549.09	22.807
549.43	22.863
549.77	22.979
550.12	22.951
550.46	23.133
550.80	23.206
551.14	23.302
551.49	23.344
551.83	23.574
552.17	23.687
552.51	23.824
552.85	23.953
553.20	24.120
553.54	24.273
553.88	24.409
554.22	24.547
554.56	24.837
554.91	25.002
555.25	25.253
555.59	25.456
555.93	25.730
556.27	25.892
556.62	26.190
556.96	26.426
557.30	26.660
557.64	26.847
557.98	27.156
558.32	27.375
558.67	27.639
559.01	27.846
559.35	28.096
559.69	28.301
560.03	28.566
560.37	28.824
560.71	29.054
561.05	29.327
561.40	29.471
561.74	29.709
562.08	29.913
562.42	30.110
562.76	30.380
563.10	30.551
563.44	30.704
563.78	30.849
564.12	31.034
564.46	31.220
564.81	31.329
565.15	31.496
565.49	31.615
565.83	31.684
566.17	31.805
566.51	31.892
566.85	31.993
567.19	32.036
567.53	32.136
567.87	32.218
568.21	32.356
568.55	32.357
568.89	32.358
569.23	32.371
569.57	32.399
569.91	32.449
570.25	32.372
570.59	32.422
570.93	32.393
571.27	32.332
571.61	32.373
571.95	32.356
572.29	32.225
572.63	32.170
572.97	32.094
573.31	32.039
573.65	31.952
573.99	31.849
574.33	31.798
574.67	31.676
575.01	31.498
575.35	31.475
575.69	31.329
576.03	31.231
576.37	31.044
576.71	30.991
577.05	30.793
577.39	30.659
577.73	30.517
578.06	30.385
578.40	30.242
578.74	30.011
579.08	29.841
579.42	29.722
579.76	29.450
580.10	29.289
580.44	29.113
580.78	28.921
581.12	28.744
581.45	28.559
581.79	28.370
582.13	28.182
582.47	28.032
582.81	27.807
583.15	27.635
583.49	27.439
583.83	27.272
584.16	27.056
584.50	26.943
584.84	26.898
585.18	26.661
585.52	26.521
585.86	26.352
586.19	26.183
586.53	26.081
586.87	26.000
587.21	25.764
587.55	25.567
587.88	25.457
588.22	25.300
588.56	25.139
588.90	24.918
589.24	24.730
589.57	24.584
589.91	24.347
590.25	24.190
590.59	23.933
590.92	23.697
591.26	23.515
591.60	23.262
591.94	23.047
592.27	22.791
592.61	22.498
592.95	22.304
593.29	22.002
593.62	21.810
593.96	21.439
594.30	21.154
594.64	20.848
594.97	20.521
595.31	20.139
595.65	19.839
595.98	19.455
596.32	19.029
596.66	18.610
597.00	18.207
597.33	17.755
597.67	17.365
598.01	16.859
598.34	16.432
598.68	15.991
599.02	15.584
599.35	15.145
599.69	14.736
600.03	14.323
600.36	14.009
600.70	13.661
601.03	13.275
601.37	13.029
601.71	12.720
602.04	12.433
602.38	12.155
602.72	11.901
603.05	11.645
603.39	11.397
603.72	11.113
604.06	10.888
604.40	10.615
604.73	10.310
605.07	10.082
605.40	9.804
605.74	9.546
606.08	9.306
606.41	8.985
606.75	8.768
607.08	8.475
607.42	8.200
607.75	7.943
608.09	7.649
608.42	7.424
608.76	7.113
609.10	6.877
609.43	6.612
609.77	6.346
610.10	6.071
610.44	5.842
610.77	5.575
611.11	5.347
611.44	5.116
611.78	4.877
612.11	4.618
612.45	4.443
612.78	4.209
613.12	4.008
613.45	3.817
613.79	3.606
614.12	3.423
614.46	3.223
614.79	3.074
615.13	2.923
615.46	2.786
615.79	2.611
616.13	2.551
616.46	2.393
616.80	2.274
617.13	2.172
617.47	2.066
617.80	1.968
618.13	1.918
618.47	1.782
618.80	1.719
619.14	1.660
619.47	1.595
619.81	1.549
620.14	1.463
620.47	1.424
620.81	1.359
621.14	1.307
621.47	1.257
621.81	1.228
622.14	1.192
622.48	1.148
622.81	1.116
623.14	1.098
623.48	1.067
623.81	1.033
624.14	0.992
624.48	0.958
624.81	0.948
625.14	0.928
625.48	0.895
625.81	0.890
626.14	0.905
626.48	0.873
626.81	0.885
627.14	0.884
627.48	0.885
627.81	0.889
628.14	0.905
628.47	0.897
628.81	0.945
629.14	0.979
629.47	0.984
629.81	1.050
630.14	1.064
630.47	1.123
630.80	1.167
631.14	1.256
631.47	1.254
631.80	1.340
632.13	1.426
632.47	1.485
632.80	1.602
633.13	1.684
633.46	1.791
633.79	1.932
634.13	2.038
634.46	2.158
634.79	2.279
635.12	2.460
635.45	2.618
635.79	2.763
636.12	2.937
636.45	3.095
636.78	3.312
637.11	3.517
637.45	3.711
637.78	3.926
638.11	4.173
638.44	4.383
638.77	4.645
639.10	4.878
639.44	5.124
639.77	5.357
640.10	5.586
640.43	5.866
640.76	6.145
641.09	6.373
641.42	6.637
641.75	6.919
642.08	7.155
642.42	7.430
642.75	7.724
643.08	7.970
643.41	8.191
643.74	8.475
644.07	8.727
644.40	8.949
644.73	9.191
645.06	9.453
645.39	9.666
645.72	9.925
646.05	10.152
646.38	10.363
646.72	10.565
647.05	10.763
647.38	10.981
647.71	11.156
648.04	11.288
648.37	11.433
648.70	11.580
649.03	11.765
649.36	11.800
649.69	11.952
650.02	12.045
650.35	12.105
650.68	12.173
651.01	12.231
651.34	12.176
651.67	12.188
652.00	12.188
652.33	12.113
652.66	12.055
652.99	11.939
653.31	11.813
653.64	11.658
653.97	11.521
654.30	11.325
654.63	11.139
654.96	10.928
655.29	10.688
655.62	10.413
655.95	10.113
656.28	9.876
656.61	9.585
656.94	9.296
657.27	9.026
657.60	8.747
657.92	8.498
658.25	8.235
658.58	8.012
658.91	7.802
659.24	7.543
659.57	7.285
659.90	7.108
660.23	6.856
660.55	6.728
660.88	6.506
661.21	6.322
661.54	6.124
661.87	5.968
662.20	5.782
662.52	5.592
662.85	5.470
663.18	5.297
663.51	5.170
663.84	5.032
664.16	4.839
664.49	4.721
664.82	4.609
665.15	4.428
665.48	4.341
665.80	4.178
666.13	4.071
666.46	3.962
666.79	3.860
667.12	3.730
667.44	3.648
667.77	3.545
668.10	3.476
668.43	3.403
668.75	3.294
669.08	3.238
669.41	3.142
669.73	3.087
670.06	3.037
670.39	2.953
670.72	2.876
671.04	2.847
671.37	2.791
671.70	2.732
672.02	2.679
672.35	2.678
672.68	2.617
673.00	2.590
673.33	2.544
673.66	2.509
673.98	2.487
674.31	2.440
674.64	2.425
674.96	2.428
675.29	2.376
675.62	2.372
675.94	2.329
676.27	2.343
676.60	2.308
676.92	2.291
677.25	2.293
677.58	2.256
677.90	2.287
678.23	2.310
678.55	2.249
678.88	2.243
679.21	2.244
679.53	2.196
679.86	2.179
680.18	2.194
680.51	2.166
680.83	2.140
681.16	2.130
681.49	2.103
681.81	2.109
682.14	2.087
682.46	2.027
682.79	2.065
683.11	2.007
683.44	1.969
683.76	1.948
684.09	1.963
684.41	1.899
684.74	1.892
685.06	1.887
685.39	1.891
685.71	1.873
686.04	1.854
686.36	1.835
686.69	1.811
687.01	1.760
687.34	1.785
687.66	1.778
687.99	1.723
688.31	1.734
688.64	1.729
688.96	1.684
689.29	1.657
689.61	1.631
689.93	1.602
690.26	1.607
690.58	1.531
690.91	1.504
691.23	1.438
691.56	1.425
691.88	1.437
692.20	1.339
692.53	1.350
692.85	1.273
693.18	1.225
693.50	1.180
693.82	1.147
694.15	1.094
694.47	1.029
694.79	0.941
695.12	0.971
695.44	0.855
695.76	0.761
696.09	0.748
696.41	0.683
696.73	0.634
697.06	0.566
697.38	0.490
697.70	0.430
698.03	0.367
698.35	0.323
698.67	0.302
699.00	0.227
699.32	0.179
699.64	0.135
699.97	0.084
700.29	0.030
700.61	-0.000
700.93	-0.012
701.26	-0.036
701.58	-0.096
701.90	-0.097
702.22	-0.172
702.55	-0.231
702.87	-0.205
703.19	-0.228
703.51	-0.215
703.84	-0.263
704.16	-0.266
704.48	-0.301
704.80	-0.328
705.13	-0.322
705.45	-0.321
705.77	-0.380
706.09	-0.385
706.41	-0.411
706.74	-0.416
707.06	-0.454
707.38	-0.408
707.70	-0.457
708.02	-0.427
708.34	-0.421
708.67	-0.444
708.99	-0.484
709.31	-0.484
709.63	-0.452
709.95	-0.520
710.27	-0.503
710.59	-0.491
710.92	-0.522
711.24	-0.498
711.56	-0.559
711.88	-0.551
712.20	-0.520
712.52	-0.544
712.84	-0.515
713.16	-0.530
713.48	-0.573
713.80	-0.594
714.12	-0.579
714.45	-0.556
714.77	-0.581
715.09	-0.609
715.41	-0.593
715.73	-0.643
716.05	-0.608
716.37	-0.638
716.69	-0.631
717.01	-0.636
717.33	-0.568
717.65	-0.662
717.97	-0.638
718.29	-0.664
718.61	-0.659
718.93	-0.688
719.25	-0.727
719.57	-0.686
719.89	-0.742
720.21	-0.734
720.53	-0.762
720.85	-0.731
721.17	-0.761
721.49	-0.764
721.81	-0.796
722.13	-0.820
722.45	-0.834
722.77	-0.860
723.09	-0.865
723.41	-0.871
723.72	-0.827
724.04	-0.830
724.36	-0.956
724.68	-0.953
725.00	-0.922
725.32	-0.960
725.64	-1.021
725.96	-1.033
726.28	-1.057
726.60	-1.094
726.91	-1.076
727.23	-1.047
727.55	-1.089
727.87	-1.197
728.19	-1.131
728.51	-1.159
728.83	-1.194
729.14	-1.150
729.46	-1.104
729.78	-1.176
730.10	-1.178
730.42	-1.129
730.74	-1.156
731.05	-1.285
731.37	-1.253
731.69	-1.207
732.01	-1.263
732.33	-1.252
732.64	-1.274
732.96	-1.345
733.28	-1.302
733.60	-1.192
733.92	-1.243
734.23	-1.340
734.55	-1.381
734.87	-1.289
735.19	-1.288
735.50	-1.306
735.82	-1.452
736.14	-1.316
736.45	-1.235
736.77	-1.346
737.09	-1.350
737.41	-1.379
737.72	-1.386
738.04	-1.304
738.36	-1.320
738.67	-1.274
738.99	-1.310
739.31	-1.337
739.63	-1.337
739.94	-1.356
740.26	-1.216
740.58	-1.327
740.89	-1.250
741.21	-1.381
741.52	-1.284
741.84	-1.231
742.16	-1.285
742.47	-1.164
742.79	-1.224
743.11	-1.217
743.42	-1.081
743.74	-1.093
744.05	-1.153
744.37	-1.268
744.69	-1.207
745.00	-1.212
745.32	-1.138
745.63	-1.141
745.95	-1.269
746.27	-1.120
746.58	-1.187
746.90	-1.154
747.21	-1.129
747.53	-1.133
747.84	-1.156
748.16	-1.102
748.47	-1.033
748.79	-1.131
749.10	-1.143
749.42	-1.141
749.74	-1.108
750.05	-1.132
750.37	-1.115
750.68	-1.005
751.00	-1.059
751.31	-1.023
751.62	-1.048
751.94	-1.070
752.25	-1.015
752.57	-1.026
752.88	-1.036
753.20	-0.986
753.51	-1.028
753.83	-1.003
754.14	-0.948
754.46	-0.974
754.77	-0.983
755.08	-0.970
755.40	-1.017
755.71	-1.013
756.03	-0.934
756.34	-1.032
756.66	-0.878
756.97	-0.911
757.28	-0.930
757.60	-0.938
757.91	-0.930
758.22	-0.948
758.54	-0.887
758.85	-0.946
759.17	-0.933
759.48	-0.889
759.79	-0.916
760.11	-0.892
760.42	-0.884
760.73	-0.875
761.05	-0.878
761.36	-0.923
761.67	-0.931
761.99	-0.903
762.30	-0.887
762.61	-0.918
762.92	-0.918
763.24	-0.877
763.55	-0.902
763.86	-0.884
764.18	-0.878
764.49	-0.867
764.80	-0.944
765.11	-0.855
765.43	-0.871
765.74	-0.858
766.05	-0.839
766.36	-0.841
766.68	-0.894
766.99	-0.858
767.30	-0.852
767.61	-0.857
767.93	-0.887
768.24	-0.815
768.55	-0.878
768.86	-0.818
769.17	-0.912
769.49	-0.879
769.80	-0.827
770.11	-0.916
770.42	-0.926
770.73	-0.904
771.04	-0.844
771.36	-0.899
771.67	-0.873
771.98	-0.865
772.29	-0.900
772.60	-0.891
772.91	-0.860
773.22	-0.905
773.54	-0.895
773.85	-0.931
774.16	-0.953
774.47	-0.921
774.78	-0.944
775.09	-0.894
775.40	-0.952
775.71	-0.929
776.02	-0.927
776.33	-0.906
776.64	-0.983
776.96	-0.923
777.27	-1.001
777.58	-0.967
777.89	-0.912
778.20	-0.944
778.51	-0.940
778.82	-1.002
779.13	-1.002
779.44	-0.989
779.75	-0.989
780.06	-1.014
780.37	-1.016
780.68	-1.012
780.99	-0.986
781.30	-0.982
781.61	-1.016
781.92	-1.050
782.23	-1.096
782.54	-1.097
782.85	-1.102
783.16	-1.083
783.47	-1.114
783.78	-1.132
784.08	-1.141
784.39	-1.062
784.70	-1.122
785.01	-1.164
785.32	-1.212
785.63	-1.193
785.94	-1.184
786.25	-1.193
786.56	-1.203
786.87	-1.191
787.18	-1.159
787.48	-1.183
787.79	-1.151
788.10	-1.226
788.41	-1.168
788.72	-1.226
789.03	-1.337
789.34	-1.308
789.64	-1.223
789.95	-1.241
790.26	-1.385
790.57	-1.152
790.88	-1.377
791.19	-1.329
791.49	-1.392
791.80	-1.397
792.11	-1.369
792.42	-1.460
792.73	-1.424
793.03	-1.537
793.34	-1.490
793.65	-1.523
793.96	-1.465
794.27	-1.559
794.57	-1.521
794.88	-1.435
795.19	-1.486
795.50	-1.621
795.80	-1.563
796.11	-1.622
796.42	-1.604
796.72	-1.702
797.03	-1.584
797.34	-1.642
797.65	-1.735
797.95	-1.741
798.26	-1.777
798.57	-1.637
798.87	-1.843
799.18	-1.792
799.49	-1.858
799.79	-1.804
800.10	-1.837
800.41	-1.852
800.71	-1.829
801.02	-1.843
801.33	-1.817
801.63	-1.909
801.94	-1.936
802.24	-1.964
802.55	-2.076
802.86	-2.186
803.16	-2.048
803.47	-2.142
803.77	-2.013
804.08	-2.034
804.39	-2.206
804.69	-2.202
805.00	-2.186
805.30	-2.051
805.61	-2.158
805.91	-2.110
806.22	-2.283
806.53	-2.203
806.83	-2.226
807.14	-2.116
807.44	-2.242
807.75	-2.289
808.05	-2.430
808.36	-2.420
808.66	-2.325
808.97	-2.334
809.27	-2.508
809.58	-2.427
809.88	-2.573
810.19	-2.601
810.49	-2.666
810.80	-2.378
811.10	-2.526
811.41	-2.557
811.71	-2.810
812.01	-2.675
812.32	-2.750
812.62	-2.820
812.93	-2.963
813.23	-3.012
813.54	-2.986
813.84	-2.872
814.14	-2.999
814.45	-2.983
814.75	-3.161
815.06	-3.007
815.36	-3.262
815.66	-3.195
815.97	-3.260
816.27	-3.092
816.58	-3.266
816.88	-3.398
817.18	-3.113
817.49	-3.438
817.79	-3.251
818.09	-3.336
818.40	-3.569
818.70	-3.430
819.00	-3.630
819.31	-3.490
819.61	-3.455
819.91	-3.748
820.21	-3.723
820.52	-3.938
820.82	-3.998
821.12	-3.802
821.43	-3.902
821.73	-3.941
822.03	-3.812
822.33	-4.014
822.64	-3.807
822.94	-3.996
823.24	-4.206
823.54	-4.457
823.85	-4.358
824.15	-4.774
824.45	-4.385
824.75	-4.571
825.05	-4.553
825.36	-4.736
825.66	-4.952
825.96	-5.065
826.26	-5.029
826.56	-5.003
826.87	-5.106
827.17	-5.245
827.47	-4.942
827.77	-5.231
828.07	-5.436
828.37	-5.433
828.67	-5.315
828.98	-5.697
829.28	-6.111
829.58	-5.894
829.88	-6.051
830.18	-5.769
830.48	-6.408
830.78	-6.580
831.08	-6.165
831.38	-6.315
831.69	-6.493
831.99	-6.892
832.29	-6.699
832.59	-7.235
832.89	-6.926
833.19	-7.930
833.49	-7.670
833.79	-7.900
834.09	-7.882
834.39	-7.854
834.69	-7.745
834.99	-8.468
835.29	-8.423
835.59	-9.089
835.89	-9.096
836.19	-8.705
836.49	-9.795
836.79	-9.178
837.09	-9.699
837.39	-10.338
837.69	-10.438
837.99	-10.409
838.29	-10.554
838.59	-11.051
838.89	-11.747
839.19	-11.611
839.49	-10.832
839.79	-12.004
840.09	-12.803
840.39	-12.413
840.68	-12.474
840.98	-13.327
841.28	-12.977
841.58	-14.528
841.88	-13.970
842.18	-14.252
842.48	-14.333
842.78	-15.245
843.08	-16.274
843.37	-15.737
843.67	-15.408
843.97	-17.016
844.27	-17.994
844.57	-18.683
844.87	-18.295
845.16	-17.276
845.46	-19.727
845.76	-18.959
846.06	-20.418
846.36	-21.342
846.66	-19.296
846.95	-21.624
847.25	-22.141
847.55	-21.226
847.85	-23.095
848.14	-24.297
848.44	-23.114
848.74	-24.582
849.04	-25.564
849.33	-24.901
849.63	-25.247
849.93	-27.485
850.23	-27.104
850.52	-30.300
850.82	-29.221
851.12	-31.422
851.42	-32.001
851.71	-32.029
852.01	-30.666
852.31	-34.280
852.60	-34.055
852.90	-35.975
853.20	-38.436
853.49	-36.525
853.79	-39.163
854.09	-36.420
854.38	-39.784
854.68	-42.039
854.98	-38.899
855.27	-42.296
855.57	-40.127
855.86	-41.542
856.16	-42.163
856.46	-42.682
856.75	-44.316
857.05	-44.286
857.34	-50.000
857.64	-44.929
857.94	-45.280
858.23	-47.154
858.53	-48.895
858.82	-52.660
859.12	-46.951
859.41	-46.801
859.71	-49.214
860.01	-51.033
860.30	-49.256
860.60	-49.674
860.89	-46.334
861.19	-44.531
861.48	-48.510
861.78	-51.870
862.07	-53.112
862.37	-46.013
862.66	-45.864
862.96	-48.367
863.25	-49.503
863.55	-49.121
863.84	-46.991
864.13	-49.689
864.43	-52.823
864.72	-48.938
865.02	-48.347
865.31	-53.129
865.61	-47.467
865.90	-49.797
866.19	-49.273
866.49	-49.028
866.78	-50.383
867.08	-48.611
867.37	-49.773
867.66	-49.888
867.96	-52.656
868.25	-47.150
868.55	-46.491
868.84	-54.329
869.13	-49.610
869.43	-55.213
869.72	-51.130
870.01	-52.657
870.31	-48.485
870.60	-50.971
870.89	-54.092
871.19	-51.957
871.48	-52.557
871.77	-49.793
872.07	-50.463
872.36	-52.325
872.65	-52.457
872.94	-49.324
873.24	-51.821
873.53	-51.746
873.82	-54.241
874.11	-47.450
874.41	-52.130
874.70	-49.771
>>>>>End Processed Spectral Data<<<<<
