SpectraSuite Data File
++++++++++++++++++++++++++++++++++++
Date: Mon Apr 20 20:42:26 BST 2015
User: mpfc3
Dark Spectrum Present: Yes
Reference Spectrum Present: Yes
Number of Sampled Component Spectra: 1
Spectrometers: USB2E3636
Integration Time (usec): 30000 (USB2E3636)
Spectra Averaged: 100 (USB2E3636)
Boxcar Smoothing: 0 (USB2E3636)
Correct for Electrical Dark: No (USB2E3636)
Strobe/Lamp Enabled: No (USB2E3636)
Correct for Detector Non-linearity: No (USB2E3636)
Correct for Stray Light: No (USB2E3636)
Number of Pixels in Processed Spectrum: 2048
>>>>>Begin Processed Spectral Data<<<<<
180.28	0.000
180.65	236.264
181.02	208.269
181.39	207.646
181.77	235.874
182.14	233.769
182.51	234.676
182.88	240.929
183.25	231.278
183.63	212.524
184.00	231.078
184.37	220.497
184.74	220.441
185.11	242.141
185.49	241.395
185.86	207.076
186.23	253.444
186.60	235.698
186.97	245.642
187.35	229.130
187.72	238.444
188.09	209.109
188.46	227.197
188.83	229.447
189.20	-2458.140
189.58	-65.330
189.95	-60.705
190.32	-59.219
190.69	-54.275
191.06	-60.727
191.43	-66.690
191.81	-54.879
192.18	-59.973
192.55	-58.113
192.92	-58.522
193.29	-58.894
193.66	-55.398
194.03	-60.551
194.41	-60.336
194.78	-59.474
195.15	-64.228
195.52	-58.564
195.89	-60.014
196.26	-59.469
196.63	-64.954
197.01	-65.358
197.38	-65.320
197.75	-52.845
198.12	-57.256
198.49	-64.510
198.86	-54.118
199.23	-67.220
199.60	-58.653
199.98	-67.953
200.35	-55.600
200.72	-60.905
201.09	-63.245
201.46	-63.941
201.83	-63.961
202.20	-60.108
202.57	-66.477
202.94	-65.073
203.31	-58.395
203.69	-58.005
204.06	-57.026
204.43	-59.790
204.80	-59.172
205.17	-65.863
205.54	-65.034
205.91	-60.625
206.28	-63.624
206.65	-71.971
207.02	-66.545
207.39	-66.737
207.76	-65.722
208.14	-64.710
208.51	-59.335
208.88	-63.031
209.25	-64.374
209.62	-66.691
209.99	-62.335
210.36	-64.090
210.73	-68.633
211.10	-72.218
211.47	-62.003
211.84	-62.149
212.21	-68.093
212.58	-68.323
212.95	-67.222
213.32	-68.563
213.69	-59.335
214.06	-65.396
214.43	-66.910
214.80	-71.907
215.17	-71.407
215.55	-75.722
215.92	-70.085
216.29	-63.974
216.66	-63.331
217.03	-74.123
217.40	-64.174
217.77	-63.259
218.14	-71.186
218.51	-69.423
218.88	-72.051
219.25	-60.942
219.62	-71.873
219.99	-74.106
220.36	-71.495
220.73	-75.282
221.10	-69.519
221.47	-70.315
221.84	-77.863
222.21	-81.563
222.58	-76.618
222.95	-76.167
223.32	-74.654
223.69	-66.880
224.06	-72.117
224.43	-70.294
224.80	-70.751
225.17	-82.199
225.54	-67.232
225.91	-70.556
226.27	-60.412
226.64	-77.327
227.01	-76.316
227.38	-80.000
227.75	-79.376
228.12	-78.279
228.49	-73.254
228.86	-74.648
229.23	-85.556
229.60	-80.622
229.97	-79.127
230.34	-81.239
230.71	-83.764
231.08	-84.083
231.45	-77.913
231.82	-76.824
232.19	-87.114
232.56	-86.968
232.93	-89.419
233.30	-88.324
233.66	-84.230
234.03	-72.816
234.40	-76.673
234.77	-80.790
235.14	-80.510
235.51	-89.990
235.88	-89.251
236.25	-91.643
236.62	-77.608
236.99	-82.011
237.36	-81.471
237.73	-93.123
238.09	-89.046
238.46	-82.749
238.83	-83.212
239.20	-86.888
239.57	-80.692
239.94	-81.141
240.31	-77.036
240.68	-82.891
241.05	-92.254
241.41	-85.144
241.78	-94.252
242.15	-85.538
242.52	-94.207
242.89	-98.738
243.26	-88.292
243.63	-77.946
244.00	-93.683
244.36	-76.547
244.73	-87.318
245.10	-88.822
245.47	-77.928
245.84	-86.770
246.21	-91.434
246.58	-96.217
246.94	-87.078
247.31	-97.684
247.68	-93.628
248.05	-91.256
248.42	-99.172
248.79	-96.242
249.15	-94.882
249.52	-97.706
249.89	-103.942
250.26	-95.100
250.63	-99.470
251.00	-99.145
251.36	-89.368
251.73	-97.674
252.10	-96.224
252.47	-101.686
252.84	-98.996
253.20	-92.631
253.57	-91.736
253.94	-104.983
254.31	-91.566
254.68	-92.397
255.05	-101.942
255.41	-95.625
255.78	-100.105
256.15	-94.485
256.52	-90.159
256.88	-101.809
257.25	-117.878
257.62	-95.784
257.99	-92.968
258.36	-104.899
258.72	-108.788
259.09	-101.878
259.46	-118.916
259.83	-103.974
260.19	-86.687
260.56	-109.357
260.93	-101.104
261.30	-103.053
261.67	-121.223
262.03	-104.095
262.40	-96.767
262.77	-102.242
263.14	-112.515
263.50	-105.947
263.87	-116.033
264.24	-100.554
264.61	-108.304
264.97	-96.633
265.34	-100.111
265.71	-107.845
266.07	-98.259
266.44	-104.224
266.81	-114.220
267.18	-103.262
267.54	-108.230
267.91	-102.886
268.28	-106.100
268.64	-102.990
269.01	-96.272
269.38	-112.367
269.75	-112.135
270.11	-126.471
270.48	-111.575
270.85	-89.937
271.21	-109.463
271.58	-107.159
271.95	-109.449
272.32	-100.446
272.68	-107.564
273.05	-118.594
273.42	-104.190
273.78	-102.308
274.15	-117.675
274.52	-102.344
274.88	-111.020
275.25	-103.150
275.62	-92.804
275.98	-99.117
276.35	-93.963
276.72	-91.496
277.08	-110.313
277.45	-104.222
277.82	-99.418
278.18	-105.843
278.55	-109.393
278.92	-105.634
279.28	-95.308
279.65	-97.182
280.01	-116.851
280.38	-107.545
280.75	-113.599
281.11	-114.387
281.48	-101.508
281.85	-112.740
282.21	-116.082
282.58	-111.894
282.95	-112.103
283.31	-103.940
283.68	-109.310
284.04	-85.847
284.41	-110.967
284.78	-102.733
285.14	-100.115
285.51	-93.640
285.87	-105.090
286.24	-104.171
286.61	-119.560
286.97	-100.000
287.34	-112.381
287.70	-105.640
288.07	-93.222
288.44	-103.020
288.80	-106.351
289.17	-103.010
289.53	-103.595
289.90	-103.295
290.26	-112.575
290.63	-96.197
291.00	-117.818
291.36	-94.322
291.73	-91.805
292.09	-98.126
292.46	-96.652
292.82	-103.571
293.19	-103.215
293.56	-106.110
293.92	-97.235
294.29	-108.226
294.65	-99.537
295.02	-102.128
295.38	-121.599
295.75	-93.262
296.11	-101.540
296.48	-92.911
296.84	-101.263
297.21	-117.606
297.57	-109.629
297.94	-107.303
298.30	-102.908
298.67	-93.439
299.04	-111.765
299.40	-97.537
299.77	-99.461
300.13	-110.780
300.50	-98.855
300.86	-107.978
301.23	-102.900
301.59	-87.487
301.96	-122.017
302.32	-105.371
302.69	-104.525
303.05	-95.204
303.42	-95.248
303.78	-94.180
304.14	-90.541
304.51	-89.896
304.87	-110.115
305.24	-84.336
305.60	-89.411
305.97	-85.248
306.33	-91.559
306.70	-82.068
307.06	-84.405
307.43	-81.019
307.79	-95.769
308.16	-79.081
308.52	-89.392
308.88	-105.692
309.25	-85.268
309.61	-86.693
309.98	-94.915
310.34	-94.828
310.71	-80.924
311.07	-85.913
311.44	-92.776
311.80	-84.518
312.16	-84.171
312.53	-83.707
312.89	-90.777
313.26	-85.769
313.62	-91.847
313.98	-83.607
314.35	-88.357
314.71	-84.459
315.08	-91.755
315.44	-92.057
315.80	-85.728
316.17	-85.104
316.53	-73.452
316.90	-71.626
317.26	-85.484
317.62	-69.924
317.99	-74.024
318.35	-70.776
318.72	-69.143
319.08	-69.142
319.44	-79.543
319.81	-73.594
320.17	-76.891
320.53	-72.903
320.90	-67.431
321.26	-70.672
321.62	-65.938
321.99	-70.772
322.35	-65.456
322.72	-65.437
323.08	-70.468
323.44	-65.520
323.81	-68.295
324.17	-70.458
324.53	-66.836
324.90	-61.414
325.26	-62.580
325.62	-59.402
325.99	-68.618
326.35	-61.470
326.71	-61.507
327.08	-57.503
327.44	-56.159
327.80	-60.013
328.16	-55.208
328.53	-60.587
328.89	-65.440
329.25	-62.698
329.62	-47.099
329.98	-45.597
330.34	-50.761
330.71	-49.971
331.07	-51.386
331.43	-46.999
331.79	-40.050
332.16	-46.019
332.52	-44.749
332.88	-42.926
333.24	-47.936
333.61	-47.555
333.97	-45.898
334.33	-43.881
334.70	-40.371
335.06	-41.895
335.42	-42.191
335.78	-40.009
336.15	-37.185
336.51	-37.866
336.87	-41.721
337.23	-38.087
337.60	-37.500
337.96	-37.901
338.32	-36.162
338.68	-36.535
339.04	-36.394
339.41	-36.039
339.77	-31.507
340.13	-34.635
340.49	-35.241
340.86	-33.371
341.22	-32.795
341.58	-30.583
341.94	-29.974
342.30	-31.477
342.67	-33.466
343.03	-28.637
343.39	-29.369
343.75	-28.479
344.11	-29.654
344.48	-29.470
344.84	-28.873
345.20	-26.879
345.56	-30.387
345.92	-27.228
346.28	-24.848
346.65	-25.214
347.01	-27.843
347.37	-24.744
347.73	-24.079
348.09	-25.366
348.45	-20.523
348.82	-22.693
349.18	-24.217
349.54	-21.852
349.90	-21.475
350.26	-22.157
350.62	-21.966
350.98	-19.547
351.35	-19.046
351.71	-20.999
352.07	-19.487
352.43	-20.531
352.79	-18.016
353.15	-18.968
353.51	-17.642
353.87	-20.684
354.24	-18.509
354.60	-18.742
354.96	-17.304
355.32	-17.527
355.68	-17.975
356.04	-16.740
356.40	-18.038
356.76	-17.309
357.12	-15.645
357.48	-16.578
357.85	-15.430
358.21	-14.596
358.57	-14.494
358.93	-16.214
359.29	-15.141
359.65	-15.162
360.01	-13.811
360.37	-14.217
360.73	-13.614
361.09	-12.769
361.45	-14.208
361.81	-13.494
362.17	-13.222
362.53	-11.935
362.89	-12.892
363.25	-10.719
363.62	-11.634
363.98	-13.158
364.34	-12.477
364.70	-11.540
365.06	-11.583
365.42	-11.593
365.78	-12.238
366.14	-11.119
366.50	-10.266
366.86	-10.585
367.22	-10.240
367.58	-9.758
367.94	-10.540
368.30	-9.410
368.66	-9.664
369.02	-8.983
369.38	-9.875
369.74	-9.785
370.10	-9.501
370.46	-8.926
370.82	-8.914
371.18	-9.898
371.54	-8.648
371.90	-8.701
372.26	-8.573
372.62	-8.501
372.98	-7.556
373.33	-7.761
373.69	-7.267
374.05	-8.454
374.41	-7.635
374.77	-7.214
375.13	-7.779
375.49	-6.775
375.85	-6.451
376.21	-7.113
376.57	-7.399
376.93	-6.200
377.29	-6.308
377.65	-6.039
378.01	-6.292
378.37	-5.793
378.73	-6.133
379.08	-5.423
379.44	-5.830
379.80	-5.431
380.16	-5.890
380.52	-5.524
380.88	-5.118
381.24	-4.859
381.60	-5.004
381.96	-4.970
382.32	-4.676
382.67	-4.749
383.03	-4.503
383.39	-4.172
383.75	-3.938
384.11	-3.055
384.47	-3.569
384.83	-3.398
385.19	-3.760
385.54	-2.970
385.90	-3.745
386.26	-3.607
386.62	-3.090
386.98	-2.575
387.34	-2.339
387.70	-2.576
388.05	-2.730
388.41	-2.224
388.77	-1.557
389.13	-1.836
389.49	-1.716
389.85	-1.815
390.20	-1.993
390.56	-1.278
390.92	-0.970
391.28	-0.996
391.64	-0.891
391.99	-0.774
392.35	-0.216
392.71	-0.109
393.07	-0.340
393.43	-0.444
393.78	0.384
394.14	-0.118
394.50	0.600
394.86	0.760
395.22	0.911
395.57	0.464
395.93	0.876
396.29	1.175
396.65	1.156
397.00	1.585
397.36	1.734
397.72	1.528
398.08	1.910
398.43	2.172
398.79	2.439
399.15	2.608
399.51	2.786
399.86	2.980
400.22	2.531
400.58	2.930
400.94	3.056
401.29	3.469
401.65	3.199
402.01	3.169
402.37	4.061
402.72	3.930
403.08	4.175
403.44	4.068
403.79	4.592
404.15	4.218
404.51	4.389
404.86	4.654
405.22	4.821
405.58	5.092
405.94	5.136
406.29	5.042
406.65	5.456
407.01	5.383
407.36	5.912
407.72	5.848
408.08	5.729
408.43	6.229
408.79	6.431
409.15	6.478
409.50	6.676
409.86	6.804
410.22	6.930
410.57	7.099
410.93	7.266
411.29	7.562
411.64	7.272
412.00	7.707
412.35	7.978
412.71	7.840
413.07	8.373
413.42	8.102
413.78	8.458
414.14	8.566
414.49	8.595
414.85	8.727
415.20	8.853
415.56	9.067
415.92	9.429
416.27	9.501
416.63	9.468
416.98	9.589
417.34	9.605
417.70	10.085
418.05	9.897
418.41	10.025
418.76	10.182
419.12	10.404
419.47	10.620
419.83	10.514
420.19	10.877
420.54	11.050
420.90	11.041
421.25	11.337
421.61	11.455
421.96	11.351
422.32	11.611
422.67	11.594
423.03	11.856
423.39	11.985
423.74	12.101
424.10	12.307
424.45	12.433
424.81	12.325
425.16	12.470
425.52	12.790
425.87	12.665
426.23	13.046
426.58	13.213
426.94	13.063
427.29	13.323
427.65	13.350
428.00	13.613
428.36	13.682
428.71	13.777
429.07	13.753
429.42	14.167
429.78	14.172
430.13	14.358
430.49	14.534
430.84	14.467
431.19	14.533
431.55	14.753
431.90	15.048
432.26	14.978
432.61	15.024
432.97	15.184
433.32	15.380
433.68	15.380
434.03	15.564
434.39	15.865
434.74	15.755
435.09	15.855
435.45	15.889
435.80	16.178
436.16	16.115
436.51	16.434
436.86	16.465
437.22	16.596
437.57	16.646
437.93	16.751
438.28	16.757
438.63	17.013
438.99	17.245
439.34	17.249
439.70	17.237
440.05	17.512
440.40	17.499
440.76	17.415
441.11	17.640
441.47	17.856
441.82	17.977
442.17	18.028
442.53	18.134
442.88	18.145
443.23	18.144
443.59	18.338
443.94	18.528
444.29	18.670
444.65	18.602
445.00	18.689
445.35	18.838
445.71	18.828
446.06	19.002
446.41	19.152
446.77	19.018
447.12	19.260
447.47	19.302
447.83	19.503
448.18	19.625
448.53	19.615
448.89	19.691
449.24	19.825
449.59	19.959
449.94	20.004
450.30	20.122
450.65	20.243
451.00	20.204
451.36	20.514
451.71	20.411
452.06	20.592
452.41	20.698
452.77	20.680
453.12	20.847
453.47	21.109
453.82	21.011
454.18	21.076
454.53	21.225
454.88	21.355
455.23	21.345
455.59	21.486
455.94	21.749
456.29	21.689
456.64	21.755
457.00	21.958
457.35	22.036
457.70	22.165
458.05	22.133
458.40	22.322
458.76	22.463
459.11	22.628
459.46	22.498
459.81	22.651
460.16	22.832
460.52	22.848
460.87	23.079
461.22	23.049
461.57	23.074
461.92	23.293
462.28	23.281
462.63	23.497
462.98	23.394
463.33	23.586
463.68	23.708
464.03	23.829
464.38	23.788
464.74	23.952
465.09	23.846
465.44	23.865
465.79	24.201
466.14	24.343
466.49	24.198
466.84	24.510
467.20	24.532
467.55	24.658
467.90	24.633
468.25	24.844
468.60	24.850
468.95	24.835
469.30	24.851
469.65	24.937
470.00	25.168
470.36	25.106
470.71	25.184
471.06	25.203
471.41	25.223
471.76	25.341
472.11	25.359
472.46	25.395
472.81	25.360
473.16	25.466
473.51	25.648
473.86	25.710
474.21	25.673
474.56	25.602
474.91	25.676
475.26	25.701
475.62	25.749
475.97	25.824
476.32	25.749
476.67	25.796
477.02	25.686
477.37	25.877
477.72	25.959
478.07	25.908
478.42	25.833
478.77	25.925
479.12	25.928
479.47	25.882
479.82	25.893
480.17	25.871
480.52	25.919
480.87	25.918
481.22	26.010
481.57	25.959
481.92	25.963
482.27	25.997
482.62	26.040
482.97	26.029
483.32	26.077
483.67	26.009
484.02	26.096
484.36	26.136
484.71	26.116
485.06	26.149
485.41	26.141
485.76	26.232
486.11	26.236
486.46	26.229
486.81	26.283
487.16	26.385
487.51	26.344
487.86	26.449
488.21	26.482
488.56	26.479
488.91	26.606
489.25	26.636
489.60	26.625
489.95	26.754
490.30	26.865
490.65	26.838
491.00	26.991
491.35	27.004
491.70	27.086
492.05	27.161
492.39	27.292
492.74	27.286
493.09	27.365
493.44	27.426
493.79	27.525
494.14	27.615
494.49	27.739
494.83	27.741
495.18	27.807
495.53	27.830
495.88	27.959
496.23	28.074
496.58	28.077
496.92	28.256
497.27	28.342
497.62	28.328
497.97	28.502
498.32	28.551
498.67	28.614
499.01	28.729
499.36	28.777
499.71	28.797
500.06	28.915
500.41	28.945
500.75	29.068
501.10	29.073
501.45	29.129
501.80	29.134
502.14	29.266
502.49	29.255
502.84	29.382
503.19	29.385
503.53	29.480
503.88	29.530
504.23	29.540
504.58	29.540
504.92	29.674
505.27	29.699
505.62	29.744
505.97	29.768
506.31	29.756
506.66	29.818
507.01	29.855
507.36	29.807
507.70	29.900
508.05	29.829
508.40	29.788
508.74	29.807
509.09	29.736
509.44	29.797
509.79	29.724
510.13	29.705
510.48	29.707
510.83	29.709
511.17	29.639
511.52	29.636
511.87	29.599
512.21	29.580
512.56	29.594
512.91	29.656
513.25	29.686
513.60	29.684
513.95	29.724
514.29	29.804
514.64	29.817
514.98	29.896
515.33	29.852
515.68	29.989
516.02	29.975
516.37	29.943
516.72	29.971
517.06	30.060
517.41	30.133
517.75	30.095
518.10	30.149
518.45	30.121
518.79	30.220
519.14	30.205
519.48	30.247
519.83	30.201
520.18	30.272
520.52	30.379
520.87	30.327
521.21	30.336
521.56	30.419
521.90	30.376
522.25	30.427
522.60	30.349
522.94	30.387
523.29	30.396
523.63	30.373
523.98	30.393
524.32	30.349
524.67	30.386
525.01	30.295
525.36	30.295
525.70	30.241
526.05	30.271
526.39	30.115
526.74	30.108
527.08	30.085
527.43	30.008
527.77	29.951
528.12	29.921
528.46	29.819
528.81	29.751
529.15	29.695
529.50	29.574
529.84	29.548
530.19	29.423
530.53	29.347
530.88	29.200
531.22	29.176
531.57	28.970
531.91	28.853
532.26	28.724
532.60	28.625
532.94	28.471
533.29	28.270
533.63	28.109
533.98	27.940
534.32	27.744
534.67	27.619
535.01	27.369
535.35	27.224
535.70	27.009
536.04	26.810
536.39	26.608
536.73	26.386
537.07	26.178
537.42	25.976
537.76	25.806
538.11	25.622
538.45	25.374
538.79	25.154
539.14	24.960
539.48	24.743
539.82	24.590
540.17	24.346
540.51	24.113
540.85	23.991
541.20	23.811
541.54	23.649
541.89	23.535
542.23	23.406
542.57	23.215
542.92	23.127
543.26	23.036
543.60	22.960
543.94	22.923
544.29	22.821
544.63	22.722
544.97	22.700
545.32	22.688
545.66	22.650
546.00	22.659
546.35	22.559
546.69	22.684
547.03	22.636
547.37	22.643
547.72	22.715
548.06	22.742
548.40	22.724
548.75	22.865
549.09	22.824
549.43	22.961
549.77	22.991
550.12	23.061
550.46	23.107
550.80	23.286
551.14	23.365
551.49	23.428
551.83	23.606
552.17	23.774
552.51	23.872
552.85	24.054
553.20	24.131
553.54	24.401
553.88	24.528
554.22	24.714
554.56	24.953
554.91	25.170
555.25	25.388
555.59	25.511
555.93	25.839
556.27	25.992
556.62	26.209
556.96	26.554
557.30	26.691
557.64	26.945
557.98	27.243
558.32	27.411
558.67	27.721
559.01	27.915
559.35	28.173
559.69	28.435
560.03	28.664
560.37	28.867
560.71	29.137
561.05	29.366
561.40	29.568
561.74	29.789
562.08	29.981
562.42	30.203
562.76	30.408
563.10	30.607
563.44	30.797
563.78	30.960
564.12	31.142
564.46	31.325
564.81	31.428
565.15	31.549
565.49	31.716
565.83	31.823
566.17	31.895
566.51	31.972
566.85	32.060
567.19	32.203
567.53	32.270
567.87	32.312
568.21	32.461
568.55	32.403
568.89	32.452
569.23	32.471
569.57	32.505
569.91	32.555
570.25	32.507
570.59	32.532
570.93	32.519
571.27	32.474
571.61	32.413
571.95	32.347
572.29	32.320
572.63	32.233
572.97	32.157
573.31	32.108
573.65	32.057
573.99	31.963
574.33	31.873
574.67	31.784
575.01	31.602
575.35	31.553
575.69	31.422
576.03	31.338
576.37	31.183
576.71	31.078
577.05	30.911
577.39	30.804
577.73	30.674
578.06	30.484
578.40	30.359
578.74	30.128
579.08	30.008
579.42	29.800
579.76	29.583
580.10	29.412
580.44	29.261
580.78	29.023
581.12	28.818
581.45	28.649
581.79	28.492
582.13	28.264
582.47	28.079
582.81	27.909
583.15	27.728
583.49	27.597
583.83	27.363
584.16	27.226
584.50	27.049
584.84	26.964
585.18	26.741
585.52	26.573
585.86	26.491
586.19	26.278
586.53	26.208
586.87	26.084
587.21	25.847
587.55	25.683
587.88	25.567
588.22	25.359
588.56	25.235
588.90	24.990
589.24	24.785
589.57	24.610
589.91	24.484
590.25	24.275
590.59	24.014
590.92	23.808
591.26	23.673
591.60	23.318
591.94	23.162
592.27	22.856
592.61	22.623
592.95	22.362
593.29	22.070
593.62	21.843
593.96	21.544
594.30	21.230
594.64	20.890
594.97	20.574
595.31	20.239
595.65	19.847
595.98	19.491
596.32	19.091
596.66	18.647
597.00	18.262
597.33	17.845
597.67	17.420
598.01	16.911
598.34	16.483
598.68	16.086
599.02	15.607
599.35	15.205
599.69	14.811
600.03	14.398
600.36	14.066
600.70	13.712
601.03	13.405
601.37	13.059
601.71	12.788
602.04	12.499
602.38	12.206
602.72	11.935
603.05	11.693
603.39	11.452
603.72	11.168
604.06	10.945
604.40	10.685
604.73	10.418
605.07	10.110
605.40	9.851
605.74	9.625
606.08	9.343
606.41	9.074
606.75	8.803
607.08	8.540
607.42	8.240
607.75	7.986
608.09	7.710
608.42	7.453
608.76	7.168
609.10	6.917
609.43	6.653
609.77	6.369
610.10	6.131
610.44	5.909
610.77	5.580
611.11	5.398
611.44	5.147
611.78	4.908
612.11	4.699
612.45	4.453
612.78	4.236
613.12	4.066
613.45	3.831
613.79	3.640
614.12	3.477
614.46	3.292
614.79	3.111
615.13	2.968
615.46	2.836
615.79	2.684
616.13	2.571
616.46	2.418
616.80	2.302
617.13	2.188
617.47	2.110
617.80	2.006
618.13	1.953
618.47	1.839
618.80	1.769
619.14	1.696
619.47	1.647
619.81	1.573
620.14	1.501
620.47	1.468
620.81	1.385
621.14	1.345
621.47	1.315
621.81	1.246
622.14	1.221
622.48	1.180
622.81	1.146
623.14	1.106
623.48	1.075
623.81	1.069
624.14	1.021
624.48	1.005
624.81	0.975
625.14	0.965
625.48	0.956
625.81	0.929
626.14	0.940
626.48	0.901
626.81	0.905
627.14	0.946
627.48	0.935
627.81	0.910
628.14	0.940
628.47	0.929
628.81	0.966
629.14	1.006
629.47	1.053
629.81	1.053
630.14	1.096
630.47	1.144
630.80	1.195
631.14	1.257
631.47	1.308
631.80	1.407
632.13	1.450
632.47	1.521
632.80	1.614
633.13	1.728
633.46	1.817
633.79	1.941
634.13	2.063
634.46	2.203
634.79	2.343
635.12	2.471
635.45	2.628
635.79	2.805
636.12	2.980
636.45	3.122
636.78	3.331
637.11	3.535
637.45	3.783
637.78	3.991
638.11	4.188
638.44	4.412
638.77	4.665
639.10	4.888
639.44	5.135
639.77	5.405
640.10	5.653
640.43	5.907
640.76	6.167
641.09	6.395
641.42	6.668
641.75	6.940
642.08	7.213
642.42	7.481
642.75	7.759
643.08	7.992
643.41	8.230
643.74	8.486
644.07	8.771
644.40	8.972
644.73	9.215
645.06	9.478
645.39	9.727
645.72	9.971
646.05	10.203
646.38	10.419
646.72	10.616
647.05	10.817
647.38	11.017
647.71	11.174
648.04	11.369
648.37	11.508
648.70	11.657
649.03	11.810
649.36	11.852
649.69	12.039
650.02	12.044
650.35	12.179
650.68	12.235
651.01	12.231
651.34	12.278
651.67	12.239
652.00	12.232
652.33	12.218
652.66	12.112
652.99	11.969
653.31	11.861
653.64	11.696
653.97	11.579
654.30	11.374
654.63	11.192
654.96	10.982
655.29	10.728
655.62	10.481
655.95	10.205
656.28	9.928
656.61	9.669
656.94	9.348
657.27	9.088
657.60	8.831
657.92	8.553
658.25	8.349
658.58	8.059
658.91	7.807
659.24	7.609
659.57	7.389
659.90	7.158
660.23	6.938
660.55	6.743
660.88	6.561
661.21	6.373
661.54	6.188
661.87	5.996
662.20	5.853
662.52	5.641
662.85	5.524
663.18	5.356
663.51	5.211
663.84	5.083
664.16	4.867
664.49	4.762
664.82	4.618
665.15	4.521
665.48	4.407
665.80	4.244
666.13	4.124
666.46	4.006
666.79	3.919
667.12	3.796
667.44	3.692
667.77	3.604
668.10	3.511
668.43	3.473
668.75	3.347
669.08	3.284
669.41	3.193
669.73	3.118
670.06	3.072
670.39	2.996
670.72	2.929
671.04	2.894
671.37	2.823
671.70	2.784
672.02	2.757
672.35	2.725
672.68	2.663
673.00	2.587
673.33	2.584
673.66	2.550
673.98	2.525
674.31	2.504
674.64	2.458
674.96	2.443
675.29	2.429
675.62	2.442
675.94	2.376
676.27	2.377
676.60	2.371
676.92	2.327
677.25	2.326
677.58	2.291
677.90	2.305
678.23	2.324
678.55	2.267
678.88	2.283
679.21	2.280
679.53	2.264
679.86	2.228
680.18	2.203
680.51	2.239
680.83	2.185
681.16	2.184
681.49	2.172
681.81	2.132
682.14	2.117
682.46	2.076
682.79	2.088
683.11	2.049
683.44	2.008
683.76	1.997
684.09	2.010
684.41	1.952
684.74	1.943
685.06	1.909
685.39	1.937
685.71	1.906
686.04	1.878
686.36	1.872
686.69	1.854
687.01	1.814
687.34	1.806
687.66	1.789
687.99	1.779
688.31	1.789
688.64	1.768
688.96	1.732
689.29	1.714
689.61	1.687
689.93	1.633
690.26	1.633
690.58	1.566
690.91	1.548
691.23	1.508
691.56	1.490
691.88	1.456
692.20	1.429
692.53	1.358
692.85	1.328
693.18	1.261
693.50	1.240
693.82	1.167
694.15	1.132
694.47	1.067
694.79	1.004
695.12	0.999
695.44	0.897
695.76	0.849
696.09	0.829
696.41	0.736
696.73	0.715
697.06	0.626
697.38	0.541
697.70	0.504
698.03	0.435
698.35	0.369
698.67	0.354
699.00	0.274
699.32	0.228
699.64	0.191
699.97	0.118
700.29	0.097
700.61	0.049
700.93	0.042
701.26	-0.028
701.58	-0.045
701.90	-0.090
702.22	-0.104
702.55	-0.149
702.87	-0.161
703.19	-0.209
703.51	-0.151
703.84	-0.209
704.16	-0.224
704.48	-0.223
704.80	-0.273
705.13	-0.272
705.45	-0.258
705.77	-0.315
706.09	-0.315
706.41	-0.349
706.74	-0.365
707.06	-0.357
707.38	-0.361
707.70	-0.390
708.02	-0.391
708.34	-0.416
708.67	-0.389
708.99	-0.424
709.31	-0.406
709.63	-0.396
709.95	-0.440
710.27	-0.456
710.59	-0.460
710.92	-0.461
711.24	-0.465
711.56	-0.520
711.88	-0.467
712.20	-0.469
712.52	-0.489
712.84	-0.485
713.16	-0.466
713.48	-0.478
713.80	-0.530
714.12	-0.515
714.45	-0.515
714.77	-0.516
715.09	-0.497
715.41	-0.547
715.73	-0.537
716.05	-0.535
716.37	-0.549
716.69	-0.514
717.01	-0.579
717.33	-0.523
717.65	-0.602
717.97	-0.569
718.29	-0.603
718.61	-0.587
718.93	-0.599
719.25	-0.693
719.57	-0.631
719.89	-0.656
720.21	-0.687
720.53	-0.714
720.85	-0.661
721.17	-0.679
721.49	-0.694
721.81	-0.728
722.13	-0.731
722.45	-0.706
722.77	-0.788
723.09	-0.806
723.41	-0.756
723.72	-0.834
724.04	-0.761
724.36	-0.835
724.68	-0.897
725.00	-0.894
725.32	-0.829
725.64	-0.960
725.96	-0.877
726.28	-0.901
726.60	-0.946
726.91	-0.862
727.23	-0.952
727.55	-1.054
727.87	-0.972
728.19	-1.022
728.51	-0.983
728.83	-0.991
729.14	-1.029
729.46	-1.048
729.78	-1.111
730.10	-1.077
730.42	-1.090
730.74	-1.060
731.05	-1.086
731.37	-1.144
731.69	-1.138
732.01	-1.123
732.33	-1.108
732.64	-1.151
732.96	-1.208
733.28	-1.105
733.60	-1.062
733.92	-1.173
734.23	-1.101
734.55	-1.226
734.87	-1.161
735.19	-1.191
735.50	-1.184
735.82	-1.223
736.14	-1.200
736.45	-1.177
736.77	-1.168
737.09	-1.188
737.41	-1.254
737.72	-1.193
738.04	-1.213
738.36	-1.130
738.67	-1.135
738.99	-1.137
739.31	-1.166
739.63	-1.242
739.94	-1.192
740.26	-1.138
740.58	-1.205
740.89	-1.076
741.21	-1.212
741.52	-1.169
741.84	-1.089
742.16	-1.183
742.47	-1.109
742.79	-1.108
743.11	-1.084
743.42	-1.019
743.74	-0.989
744.05	-1.074
744.37	-1.108
744.69	-1.023
745.00	-1.162
745.32	-0.943
745.63	-1.055
745.95	-1.086
746.27	-1.038
746.58	-1.026
746.90	-0.995
747.21	-1.010
747.53	-1.027
747.84	-0.998
748.16	-1.007
748.47	-1.006
748.79	-1.026
749.10	-1.033
749.42	-1.052
749.74	-1.059
750.05	-1.003
750.37	-1.019
750.68	-0.918
751.00	-0.952
751.31	-0.952
751.62	-0.952
751.94	-0.939
752.25	-0.895
752.57	-0.938
752.88	-0.959
753.20	-0.874
753.51	-0.955
753.83	-0.857
754.14	-0.884
754.46	-0.902
754.77	-0.888
755.08	-0.860
755.40	-0.895
755.71	-0.904
756.03	-0.883
756.34	-0.935
756.66	-0.823
756.97	-0.852
757.28	-0.843
757.60	-0.864
757.91	-0.793
758.22	-0.798
758.54	-0.818
758.85	-0.880
759.17	-0.804
759.48	-0.816
759.79	-0.812
760.11	-0.810
760.42	-0.841
760.73	-0.784
761.05	-0.807
761.36	-0.792
761.67	-0.837
761.99	-0.828
762.30	-0.810
762.61	-0.835
762.92	-0.800
763.24	-0.812
763.55	-0.833
763.86	-0.806
764.18	-0.782
764.49	-0.803
764.80	-0.771
765.11	-0.714
765.43	-0.813
765.74	-0.764
766.05	-0.762
766.36	-0.808
766.68	-0.751
766.99	-0.798
767.30	-0.750
767.61	-0.750
767.93	-0.771
768.24	-0.768
768.55	-0.750
768.86	-0.710
769.17	-0.815
769.49	-0.820
769.80	-0.792
770.11	-0.834
770.42	-0.831
770.73	-0.800
771.04	-0.795
771.36	-0.832
771.67	-0.783
771.98	-0.802
772.29	-0.793
772.60	-0.829
772.91	-0.785
773.22	-0.782
773.54	-0.799
773.85	-0.810
774.16	-0.833
774.47	-0.816
774.78	-0.825
775.09	-0.807
775.40	-0.832
775.71	-0.834
776.02	-0.819
776.33	-0.842
776.64	-0.867
776.96	-0.828
777.27	-0.880
777.58	-0.839
777.89	-0.780
778.20	-0.904
778.51	-0.833
778.82	-0.928
779.13	-0.878
779.44	-0.912
779.75	-0.924
780.06	-0.883
780.37	-0.919
780.68	-0.873
780.99	-0.859
781.30	-0.839
781.61	-0.919
781.92	-0.928
782.23	-0.997
782.54	-0.943
782.85	-1.034
783.16	-0.994
783.47	-0.942
783.78	-1.035
784.08	-1.020
784.39	-1.008
784.70	-0.926
785.01	-1.056
785.32	-1.076
785.63	-1.116
785.94	-1.039
786.25	-1.006
786.56	-1.039
786.87	-1.055
787.18	-1.040
787.48	-1.061
787.79	-1.097
788.10	-1.138
788.41	-1.114
788.72	-1.060
789.03	-1.154
789.34	-1.140
789.64	-1.159
789.95	-1.154
790.26	-1.186
790.57	-1.139
790.88	-1.215
791.19	-1.191
791.49	-1.287
791.80	-1.240
792.11	-1.221
792.42	-1.312
792.73	-1.337
793.03	-1.317
793.34	-1.332
793.65	-1.347
793.96	-1.335
794.27	-1.395
794.57	-1.300
794.88	-1.286
795.19	-1.336
795.50	-1.528
795.80	-1.400
796.11	-1.508
796.42	-1.416
796.72	-1.439
797.03	-1.457
797.34	-1.518
797.65	-1.455
797.95	-1.611
798.26	-1.538
798.57	-1.392
798.87	-1.555
799.18	-1.533
799.49	-1.720
799.79	-1.716
800.10	-1.610
800.41	-1.653
800.71	-1.632
801.02	-1.659
801.33	-1.656
801.63	-1.796
801.94	-1.729
802.24	-1.802
802.55	-1.816
802.86	-1.968
803.16	-1.917
803.47	-1.824
803.77	-1.945
804.08	-1.933
804.39	-2.037
804.69	-1.892
805.00	-2.000
805.30	-2.006
805.61	-2.011
805.91	-1.882
806.22	-2.100
806.53	-2.033
806.83	-1.962
807.14	-1.920
807.44	-2.046
807.75	-1.990
808.05	-2.049
808.36	-2.394
808.66	-2.143
808.97	-2.196
809.27	-2.337
809.58	-2.174
809.88	-2.244
810.19	-2.480
810.49	-2.346
810.80	-2.329
811.10	-2.328
811.41	-2.370
811.71	-2.372
812.01	-2.455
812.32	-2.667
812.62	-2.388
812.93	-2.563
813.23	-2.735
813.54	-2.593
813.84	-2.711
814.14	-2.632
814.45	-2.782
814.75	-2.820
815.06	-2.761
815.36	-2.854
815.66	-2.883
815.97	-2.828
816.27	-2.808
816.58	-2.869
816.88	-3.083
817.18	-2.897
817.49	-3.152
817.79	-2.848
818.09	-3.087
818.40	-3.356
818.70	-3.104
819.00	-3.319
819.31	-3.112
819.61	-3.357
819.91	-3.352
820.21	-3.307
820.52	-3.521
820.82	-3.470
821.12	-3.577
821.43	-3.582
821.73	-3.582
822.03	-3.702
822.33	-3.758
822.64	-3.542
822.94	-3.672
823.24	-3.765
823.54	-4.027
823.85	-3.887
824.15	-4.097
824.45	-3.976
824.75	-4.374
825.05	-3.935
825.36	-4.055
825.66	-4.504
825.96	-4.640
826.26	-4.416
826.56	-4.770
826.87	-4.716
827.17	-4.565
827.47	-4.541
827.77	-4.715
828.07	-5.016
828.37	-5.322
828.67	-5.030
828.98	-4.952
829.28	-5.536
829.58	-5.079
829.88	-5.197
830.18	-5.403
830.48	-5.631
830.78	-5.592
831.08	-5.978
831.38	-6.117
831.69	-6.335
831.99	-6.276
832.29	-6.132
832.59	-6.791
832.89	-6.880
833.19	-6.908
833.49	-6.753
833.79	-7.655
834.09	-6.844
834.39	-7.031
834.69	-7.019
834.99	-7.582
835.29	-7.541
835.59	-7.973
835.89	-8.248
836.19	-8.003
836.49	-9.073
836.79	-8.522
837.09	-8.703
837.39	-9.511
837.69	-9.853
837.99	-9.386
838.29	-9.553
838.59	-9.911
838.89	-10.457
839.19	-10.515
839.49	-9.810
839.79	-10.928
840.09	-11.618
840.39	-11.095
840.68	-11.159
840.98	-12.373
841.28	-11.749
841.58	-12.621
841.88	-13.676
842.18	-12.843
842.48	-13.362
842.78	-14.380
843.08	-14.324
843.37	-14.049
843.67	-14.132
843.97	-15.373
844.27	-16.538
844.57	-16.824
844.87	-16.853
845.16	-16.161
845.46	-17.647
845.76	-17.431
846.06	-18.080
846.36	-18.688
846.66	-18.256
846.95	-19.536
847.25	-19.823
847.55	-20.336
847.85	-20.658
848.14	-21.549
848.44	-20.162
848.74	-22.190
849.04	-24.285
849.33	-22.308
849.63	-23.632
849.93	-25.251
850.23	-27.259
850.52	-28.222
850.82	-26.103
851.12	-29.383
851.42	-29.803
851.71	-29.036
852.01	-29.352
852.31	-30.504
852.60	-30.640
852.90	-34.228
853.20	-35.830
853.49	-33.508
853.79	-35.672
854.09	-34.404
854.38	-36.144
854.68	-37.680
854.98	-35.096
855.27	-38.635
855.57	-37.066
855.86	-35.635
856.16	-38.234
856.46	-40.309
856.75	-41.484
857.05	-40.898
857.34	-41.052
857.64	-41.563
857.94	-41.479
858.23	-42.099
858.53	-41.037
858.82	-47.249
859.12	-43.795
859.41	-44.096
859.71	-44.148
860.01	-47.912
860.30	-46.063
860.60	-41.207
860.89	-42.889
861.19	-40.913
861.48	-47.666
861.78	-48.353
862.07	-44.813
862.37	-41.089
862.66	-41.926
862.96	-45.548
863.25	-45.027
863.55	-46.327
863.84	-42.832
864.13	-45.641
864.43	-47.587
864.72	-46.416
865.02	-44.766
865.31	-48.835
865.61	-44.105
865.90	-47.899
866.19	-45.232
866.49	-45.319
866.78	-43.888
867.08	-44.982
867.37	-46.464
867.66	-44.769
867.96	-47.299
868.25	-43.261
868.55	-42.281
868.84	-50.381
869.13	-45.896
869.43	-51.043
869.72	-46.112
870.01	-48.909
870.31	-46.450
870.60	-47.132
870.89	-48.035
871.19	-48.562
871.48	-47.352
871.77	-45.597
872.07	-43.049
872.36	-47.534
872.65	-49.764
872.94	-43.868
873.24	-47.852
873.53	-47.197
873.82	-46.957
874.11	-43.944
874.41	-48.875
874.70	-42.824
>>>>>End Processed Spectral Data<<<<<
